3596
4000.36533379555
650.420452594757
1
128
2
98.3994457862857
98.3903739899864
98.3616360886983
98.3757814952591
98.3788383461422
98.3575965591621
98.3444197162273
98.3122508700762
98.2873444191727
98.3616884619842
98.4004178995271
98.3922254805957
98.3915283993714
98.3935997968261
98.3769415303725
98.4039489979309
98.4007248015045
98.3880066740645
98.3765623557682
98.3959321082206
98.3891284854203
98.3968694634293
98.3950590059179
98.3764660538675
98.3789038072988
98.3794312670795
98.3890913784181
98.4048722341778
98.3647092985619
98.3626711563492
98.3457952323439
98.3540568730293
98.388469488977
98.4128542577825
98.4453099510603
98.442518978725
98.4296456208277
98.4456091972131
98.345989295219
98.3272350507371
98.3684452172715
98.3886503813321
98.3868165249547
98.408147101349
98.3900441941876
98.3858752312913
98.3869364382735
98.3869509383082
98.3739031128884
98.4062440188143
98.3617471175786
98.2981292975326
98.3735551004504
98.3286489089315
98.2263426415254
98.3307269595646
98.379886297391
98.4038249006224
98.3379928940037
98.2094142216732
98.2544169278059
98.3027901770849
98.3325106115209
98.3519363777812
98.3459930998414
98.4190711875918
98.4887724657632
98.475454682113
98.4471852920197
98.3938192363562
98.2606444992577
98.3039000474305
98.3267456801164
98.3346460302153
98.3729314739336
98.408589033086
98.4749984382271
98.4451328086912
98.2971404892954
98.2934593911884
98.2923337954901
98.341369838653
98.3164582999642
98.226968236504
98.2898795575378
98.3908152380079
98.2677166598058
98.2017617737291
98.2176226297338
98.3070378088209
98.3814666855908
98.4112793616585
98.424803195285
98.4955246409963
98.4788874293535
98.4636679277725
98.5074366920134
98.5109461513155
98.3972099467735
98.452589001019
98.2564692495876
98.2487760625777
98.1560132645242
98.0252967423411
98.3004875130824
98.1043896626708
97.9548336788312
98.112037507474
98.2567801525529
98.3516512635265
98.3594243792636
98.3780276556697
98.5340934074458
98.5279176389083
98.1761141292752
98.1703492746737
98.282122028207
98.3795630499263
98.6004018313695
98.6304793139339
98.1550546828018
98.1775307932969
98.2815697697348
98.3234493183951
98.4934976433238
98.3574916078065
98.013857190382
98.1425316626673
98.3335429805119
98.395500066046
98.4094592283802
98.499358312765
98.2707837036891
98.1168510585185
98.3089248261411
98.5150703616278
98.4757782147125
98.0380092206677
97.9098882664921
98.1712452760948
98.4061440802381
98.5549733475351
98.2524182872681
98.11006295876
98.3681577774755
98.3825880994227
98.1733322493309
98.2686213833253
98.3612081874529
98.4369072553209
98.3653775377287
98.3744488667021
98.7558526661905
98.7710297050172
98.1035993166938
98.0503021965737
97.7945891015755
97.8413353874388
98.0948756982812
98.1932285427526
98.357640109664
98.4348273865625
98.4777136803594
98.5639108789088
98.6102507437916
98.414783565551
98.4803504408031
98.6126835888294
98.3742137553413
98.3110980128287
98.5397572276719
98.2735660916765
98.0089909110971
98.341991268948
98.2475563657485
98.1512165973134
98.3882944120093
98.4752825483664
98.2241709808411
98.2736322452831
98.4286517312151
98.511036859039
98.5551338996968
98.4058325598992
98.3338509139175
98.4343212299423
98.480013727101
98.6525541531191
98.6818366026958
98.30662637561
97.9625524992225
98.048109965627
98.2512831393423
98.5997896598141
98.5380806543342
98.0445149976038
98.1378636665393
98.3350178843325
98.4178863866799
98.5143563065423
98.5307676438436
98.566138384911
98.6541228663743
98.8432347077712
98.6177417585902
98.2796042283327
98.3660009238408
98.4667791591476
98.5599530156028
98.6868333667897
98.4961795285617
98.0398405094674
98.1098063836275
98.3530950637538
98.5715277159956
98.5470964558409
98.2830838003709
98.3520658934946
98.4515849004515
98.5106951959821
98.5910230499619
98.6172891636096
98.6204145687558
98.6062086710232
98.5942924272569
98.59916574869
98.60934457223
98.6763551842956
98.6044760747502
98.4559651058968
98.4959863360903
98.5816819096714
98.6364919277591
98.6394494053398
98.4451274670866
98.4349155753539
98.4764420583472
98.5010547342443
98.548387587506
98.6019341926406
98.6531587797112
98.6862718605249
98.7492229462847
98.8399677757964
98.5538198487481
98.309144720199
98.4451031368972
98.5448876874275
98.5853628372237
98.4410988600635
98.4538751489018
98.4788477270843
98.5479185663789
98.6414320323856
98.730711405653
98.5577250504795
98.3459689320082
98.4423326244833
98.4970568351561
98.4056441974425
98.4934751268171
98.6155666621208
98.7894235430766
98.4995669566348
98.2013625964507
98.572621791773
98.3158040998271
97.9795053879302
98.2075273802365
98.4648639452694
98.9220619423686
98.7006865320545
97.8484528875887
97.9893144774933
98.44257924083
98.4645934828869
98.4155265231727
98.5747960664789
98.6351717859058
98.6714451432766
98.4445323185886
98.2829195781759
98.0607587318304
98.2057219660913
98.4901241410795
98.1904453044153
98.2047014810499
98.3475508526516
98.4683525997178
98.6686279255344
98.7609757171406
98.5716922913868
98.5179868042664
98.4904066818146
98.6517710416735
98.6142686690704
98.4363380028983
98.5919933299339
98.7316519392361
98.5474858700583
98.4806136344144
98.6132582080425
98.6958823453223
98.6853196359788
98.7162111569693
98.8637858023425
98.6193943903289
98.3431501699716
98.4619066638614
98.4028809131173
98.3560602899802
98.4611473770607
98.5441334306326
98.5995718728418
98.6345333833999
98.694878756442
98.7603082452693
98.6495967048445
98.4654547067113
98.5693265784481
98.6618859428196
98.7092814634852
98.705984442433
98.6711347344441
98.6548607320572
98.7041462551592
98.7346730185389
98.8569930977788
98.8609135131646
98.5183264015282
98.5918328459307
98.7693300994695
98.262256907247
98.2624737308998
98.4840817177878
98.5682160910021
98.6403336556271
98.7202860483956
98.7559930146396
98.7485936510235
98.7667106276648
98.6949159011664
98.5633875102571
98.6966486881943
98.9244809894608
98.7426296640623
98.0959182532204
97.9951192073175
98.3413705092642
98.6763923112336
98.793984894174
98.3145609076371
98.1244140668489
98.0736586745586
98.2551396821243
98.5281298313505
98.6023244622954
98.6375834372313
98.6409127274339
98.720755067852
98.7178782405568
98.7237878165764
98.6936656569636
98.704129703131
98.75532233811
98.8453123656122
98.5434927552633
98.3237160365464
98.5036577166146
98.5930275893502
98.6775115465669
98.7426816008368
98.524783378031
98.3614254189152
98.0633667622087
98.0402534051749
97.8592736627438
97.8885801068883
98.2320824546729
98.3479714798453
98.4061109910399
98.4127849300411
98.4481477147089
98.4929336685091
98.499912832313
98.5180552438659
98.4708989596858
98.5071991722463
98.5813337687671
98.6257096936844
98.5839226719951
98.4273150476023
98.4275928964981
98.4975578130818
98.6585176333686
98.5386949091819
98.1064091054688
97.8887075632403
98.084885950358
98.1467705880681
98.2601515267625
98.338888384195
98.3871169568912
98.457578830642
98.4494435192774
98.3954604441717
98.1566259894886
98.0389802439215
98.0064399802094
98.152712643516
98.2633566237301
98.1533380514044
98.2806755131211
98.1358758333745
97.9032357825797
98.1294029265311
98.3128738950781
98.0225539512449
98.0252251177892
97.9970224940575
97.8662437476359
98.0017471749169
98.1160258498195
98.1789715365341
98.1352789334237
98.1595875321666
98.1335921826988
98.0918741389469
98.0695837995791
98.1047671659684
98.1211472024042
98.0632034887745
97.9672016367182
97.9724634914192
97.9148118825318
97.925643453768
98.0272396158585
98.0712800503754
98.1428685945072
97.9093902516577
97.7941946240023
97.6604002813574
97.5508605368103
97.7352860515625
97.7737548797029
97.7862109046346
97.7846125714467
97.8041214866041
97.8572504748915
97.8662186230146
97.8534659133574
97.8579548074408
97.8150930935848
97.8240559695141
97.8017065040234
97.7621102411091
97.7776275866556
97.8001622522866
97.7668581903446
97.7557529705947
97.8067767752946
97.6048986847412
97.4367367238493
97.3570370422706
97.3356061171827
97.4907087493351
97.4887871483382
97.4782345404465
97.5248563278976
97.5457912400544
97.4944372724558
97.5215437495596
97.5455008527247
97.5876636350823
97.5848079648804
97.5738517957541
97.4744569967388
97.4336037684612
97.4050457401759
97.390284148632
97.379900933602
97.4249100393297
97.439868007509
97.3553750863645
97.2763140899121
97.2817981872338
97.2071684856474
97.1611723947445
97.1553630185108
97.2093529346797
97.2594221519259
97.2491190510075
97.1849087429306
97.1688245817866
97.1720572941069
97.0826250068607
97.0835073021163
97.1479703961601
97.0755453326411
97.0788854860326
97.1575136714274
97.1131489811803
97.0545364815726
96.9864206716701
96.9268693200757
96.9038101365942
96.962927560228
96.929834408405
96.8185839657868
96.7600248905591
96.7173601430603
96.8005992243858
96.8631670784849
96.8303787189809
96.7762606122238
96.7956719095099
96.7782694476495
96.7995434547553
96.833176563167
96.8000487309942
96.7388472057342
96.7338152228211
96.6786015278523
96.6586809765074
96.5816980158154
96.5379362259993
96.5601745387164
96.540022319224
96.5317383140851
96.5420279895317
96.5538571110664
96.4508447560754
96.3205364072458
96.2628341806353
96.2865014867535
96.3602277446315
96.3859987117956
96.3254588029983
96.2688282258578
96.3029145955132
96.3024292950595
96.2361041141492
96.2109574131058
96.1700623284981
96.1798543732175
96.1805213030783
96.1210748285715
96.09551734516
96.0678288666838
96.0254097043942
96.0042956739173
95.9693721656912
95.9577486520593
95.950195886614
95.8810207854545
95.8339804497782
95.7927638102694
95.7396620549808
95.7289586193526
95.752816725887
95.740374963596
95.6674964136955
95.6059317013861
95.624044323354
95.6524708592303
95.6371837247312
95.5949240919363
95.5195004971934
95.461370862826
95.4922361721344
95.4598572683223
95.3619299834561
95.3385790324596
95.3595208383849
95.3277574288516
95.2882749481136
95.2620259239388
95.2071294492116
95.1757206732311
95.1769250158172
95.1526162820134
95.1050573906361
95.0284978931897
95.0048683414036
94.9819771524348
94.937680911071
94.9034911316954
94.8708109589382
94.8549542007309
94.8292657068476
94.743137936145
94.6416650328751
94.6156113244583
94.6391050938627
94.6376782830385
94.64811687156
94.5578478722838
94.4871777695809
94.5021438844289
94.496630095252
94.4941400672367
94.4927286199004
94.4382039213453
94.3442447173901
94.295264002482
94.264266170491
94.2529580676664
94.2214968196648
94.1529557633045
94.108792432138
94.0861357249092
94.0478813537286
93.9873412542687
93.9377811217112
93.9239413810417
93.9376511640096
93.8814443307367
93.8086938157933
93.7929902480998
93.7650613250992
93.6735092548464
93.6283781876773
93.5856562489844
93.5510807626651
93.4787674342818
93.4371461986637
93.4457082451845
93.4002581470304
93.3391136798123
93.2720470631952
93.2002623574888
93.1378123091912
93.1217299179638
93.0997070797149
93.0359592788721
92.9942039982465
92.9750711643413
92.9654169320444
92.9176655552648
92.8882540436459
92.8773079530177
92.8616946374021
92.7938874435384
92.7173864335925
92.6800316465504
92.6590499653469
92.6593666369284
92.6633443107519
92.6780651229972
92.6638298606992
92.584230003265
92.5263409253553
92.535708762924
92.5815943616567
92.5675262750811
92.5127383292488
92.4712191992466
92.4191927237363
92.3554576377765
92.3334024741771
92.3758231910777
92.3569375589971
92.3263189574263
92.2767196188819
92.1826578478484
92.1518422399421
92.1437487269995
92.112225265314
92.0693455677222
92.0319337286107
92.0452821719269
92.0547999796068
91.9944547353292
91.9135752515956
91.8232862955787
91.7837943457192
91.7675865451229
91.7014366568744
91.6325125885174
91.5697126171562
91.5506587089672
91.5556843580452
91.4891207848219
91.4025875947961
91.3675820716631
91.3432975947755
91.2858582654421
91.2056765188742
91.159490363129
91.1033774650874
91.0438788230066
91.0013748609014
90.9376244630381
90.8728882742011
90.8121236384395
90.7337917867891
90.6480403255149
90.5605102255863
90.4788474940553
90.4112012618942
90.3402039496988
90.306790369034
90.2536463972491
90.1931103903014
90.1663136892879
90.1180443388279
90.0236526706216
89.9584632198844
89.9331470270392
89.8729465085267
89.7844949402248
89.7512309655726
89.7200109558353
89.6850360957546
89.7001350864442
89.7356726115699
89.7407021123116
89.7229719151024
89.7421334481373
89.7359384970576
89.7343024219619
89.7888308488103
89.8350714365737
89.8381526839622
89.8224880852925
89.8104828346784
89.8656341978264
89.9498844234874
89.9541198747131
89.9427250885665
89.9549930624875
89.9796152818931
89.9887693671731
89.9669010971052
89.987844032758
89.9931109294708
89.9732559501925
90.0108867828477
90.0483481580376
90.0298088783508
89.969739403134
89.9331994593616
89.9039530250941
89.896982082617
89.8985732402248
89.8854017060894
89.8847689666311
89.8685959559867
89.8457167000293
89.8402427451716
89.8326966770855
89.7890686283466
89.7881523374945
89.7797352796154
89.7592679940453
89.752976920943
89.738005609138
89.7096732039739
89.691244953305
89.6783214882783
89.6638118627116
89.6469598255145
89.6586044478273
89.6786127742418
89.6860046130494
89.6611811404908
89.6461633167466
89.6566918998506
89.6627230664617
89.6564792278653
89.6316019757582
89.6240280729139
89.6500123247333
89.6437706665441
89.6510336967338
89.6641355403107
89.6457199662668
89.6288977559809
89.6139774019934
89.6020090103314
89.5957933437867
89.5913197194372
89.6449953434751
89.6914352542949
89.660219226494
89.6558268372968
89.7061563412179
89.7075787880816
89.6940952449823
89.7391405462563
89.8124611088215
89.8438196447787
89.8539948795472
89.8610520228059
89.9012869107587
89.9511712403777
89.9998295694386
90.0641994763338
90.1019211490861
90.135905479524
90.193355281107
90.2159398325545
90.2279716967065
90.2593197834214
90.2979222018261
90.3892438872894
90.4328812534408
90.4316665088745
90.4387855671417
90.461257286104
90.5179958316601
90.5597723719832
90.5982745256536
90.6660927009509
90.6943435415265
90.7156824806706
90.7689981551609
90.7985348474957
90.8317933110107
90.8760504830589
90.9189637751846
90.9313462203935
90.9351673229493
91.0051146224724
91.081049180142
91.1104017975299
91.1110262686454
91.1186008844352
91.1353694329528
91.1738580752383
91.1940195158534
91.1810261146769
91.2044122163813
91.2713693711565
91.3223652715182
91.3294801825262
91.334918086175
91.3758828694227
91.4469880580764
91.4738486423966
91.4947768733604
91.5226538578912
91.565677165613
91.6024146139487
91.6388058263016
91.6628594692063
91.6858366638323
91.710571978159
91.7154255292849
91.728269026656
91.8027655243508
91.8855717488148
91.9185887669706
91.888304004425
91.8545477811076
91.8843345866568
91.9665410221326
92.0177035524196
92.0209355645365
91.9911930520154
91.9889154369531
92.0562851493708
92.1427357884393
92.1935728801954
92.2067312071271
92.2295381501998
92.227348746664
92.241339315825
92.3089087291236
92.3430926556348
92.3263481771004
92.3350438812228
92.3522313124328
92.377640991137
92.4343807668123
92.4714169618585
92.5338384785473
92.5628362044472
92.5396090351852
92.5485296139154
92.602240507521
92.6403164467895
92.6423274685786
92.6220696037367
92.6213007720065
92.6537580152327
92.703899769097
92.7365982633434
92.7501946828365
92.7822953815575
92.8577303345618
92.8934237747973
92.8760148639452
92.8649359393557
92.8859569534644
92.9520319357473
92.9812195685327
92.9945382122339
93.0052721091314
93.0400776846513
93.0807042544545
93.0565871883153
93.0826428622488
93.1271537807177
93.1418754218283
93.1640752451189
93.1746031922315
93.1610323537939
93.2013801629604
93.2266696501336
93.2475124857326
93.2519029206508
93.2660839134796
93.2973805675795
93.3416453280432
93.3881499018938
93.408288057349
93.4345913886704
93.4184410914989
93.4165261294817
93.4612685390893
93.5138310795312
93.5491251029577
93.5452517296292
93.5470030294919
93.5501874090521
93.5686697107581
93.5928761320286
93.6107412385491
93.6332098030183
93.6774285548766
93.6971517562395
93.6987730528271
93.7181921005659
93.7485705979678
93.7578209574089
93.7523439827728
93.7954748618721
93.8290540102746
93.8163637615881
93.8289289227544
93.8571555049448
93.8477352379216
93.8739180461146
93.9314961602627
93.9261801527167
93.9351774303482
93.9686151694459
93.9713355495829
93.9820314769966
94.0288484924215
94.0389249278909
94.0595709579576
94.109214775661
94.1068168221008
94.0955195502575
94.1219014281841
94.1705461888968
94.2027764581315
94.2168974928256
94.2496579522514
94.2565591531475
94.2633257325666
94.3095955656104
94.3164056852936
94.2788087882974
94.2837750456517
94.3056633948605
94.3453260113593
94.3734968393854
94.3919122656592
94.4170863606664
94.4221884914715
94.4426562131125
94.4788756732666
94.4874739999645
94.4779731503252
94.478101539185
94.5249165234267
94.5250976248097
94.5248869426596
94.5637279102866
94.5782318339305
94.5765714967186
94.586776464319
94.5937073518189
94.6130140991145
94.6527162228194
94.6673285797888
94.6813570368542
94.7147223622548
94.7466882925652
94.7337906263061
94.7331259046983
94.7626903901624
94.7889190820268
94.77400437005
94.7925346666399
94.8393310713333
94.8441806867984
94.8579207660982
94.8467815346117
94.8336223548111
94.8407778199743
94.8600995595213
94.8981119301916
94.9374187395358
94.9653567560698
94.971275945247
94.9577873558009
94.9325836727613
94.9319303123478
94.9844288875604
95.0443947190269
95.0497984463819
95.0165045147975
95.0289232230775
95.065521875934
95.0697560256276
95.038747152393
95.0469647448033
95.1007893355292
95.1364129439971
95.159459313302
95.1950983475942
95.2173103759401
95.2071980065209
95.2031106717444
95.2025886608114
95.2105703796135
95.2333132819652
95.2422072431768
95.2478178124327
95.2759244737449
95.2796443334092
95.2348553558403
95.2427310078405
95.2701120489277
95.2900512752109
95.3151647481223
95.332602044714
95.3461218078516
95.3517380580424
95.3507673687034
95.37653829938
95.4037605702734
95.4125493955435
95.4375753033416
95.4544678424254
95.4425592742291
95.4618855172421
95.4722482449606
95.4845662282882
95.5035441354648
95.503727281641
95.51246497024
95.5222081784164
95.5004100849643
95.5335504784036
95.555815092033
95.5604226879687
95.5637355566185
95.5690846900009
95.5841280206909
95.6035825783903
95.6102255130427
95.6139067723882
95.637693679813
95.6519208372519
95.6441582680252
95.6518752061399
95.6607966454944
95.6824979748238
95.6930165658271
95.6857366299525
95.6837329958669
95.7092802995847
95.7307493912761
95.7283600704094
95.756299568322
95.7739959284073
95.7695830808532
95.783275474407
95.7945837841372
95.77960672668
95.7535092781776
95.76908498548
95.7737333109914
95.7487538698067
95.7273833555819
95.7628987406166
95.8239765465269
95.8113246587024
95.7676006407388
95.7587957352742
95.756757731635
95.7391848104421
95.7097222889932
95.7092307136045
95.7003851160538
95.6761887977051
95.6592518193754
95.6380421286659
95.6002676528516
95.5634975936571
95.5493225012546
95.5434480223274
95.5120575720575
95.4932924268686
95.5134600176053
95.5322529846696
95.5223014565706
95.4989880499389
95.4910121113147
95.5069521630291
95.5230915326792
95.5289733516818
95.5061077890829
95.4875043493155
95.486947867503
95.4735349235155
95.4278910418775
95.3891909888191
95.3644873896139
95.310142278268
95.26359685671
95.2336697515885
95.2265744452788
95.209527648326
95.1830651789199
95.1632450951491
95.126582229058
95.0753154564773
95.0566750915881
95.0454160099092
95.0268305495045
95.0304426141119
95.0064001702652
94.9774992486626
94.9766926840111
94.9789988253518
94.9937082897432
94.9974295607385
94.9745036460697
94.9482088094269
94.9332963281623
94.9435722965268
94.9433252807183
94.9152694970832
94.9098889060442
94.913628948369
94.8914277287892
94.8752378196584
94.8688899018895
94.8156782526418
94.7875301147935
94.7813999767307
94.7342656202379
94.6726720139298
94.6216191647392
94.5844860607409
94.5370732880833
94.4589396288861
94.3993672390111
94.3452136791844
94.2869664433703
94.2343477409249
94.1784842500128
94.1153047265203
94.0398641353145
93.9773838209502
93.9174480272347
93.8386639653661
93.7783879495493
93.7270756564146
93.6704218239844
93.6408862849901
93.6208723297654
93.5999936620839
93.5796964472739
93.5661550031896
93.537486636021
93.5112120989754
93.4876962783379
93.4643122232473
93.4722320212032
93.5076707692825
93.5171583900424
93.5198034747783
93.5361020705924
93.5448082982988
93.5370377173839
93.536884221609
93.5399767641616
93.5504952722869
93.5771492767974
93.6132365087058
93.6301729088328
93.6350403975439
93.6482234561395
93.6703765924163
93.6885892150893
93.727704925686
93.7208764104097
93.7276746986595
93.7386567494986
93.7256381925985
93.7272442879071
93.7391900400678
93.7406752789704
93.7502114561806
93.7370749554336
93.7212717154974
93.7069766559106
93.7259616633557
93.7763796939385
93.7961000075765
93.79337249826
93.8069199524629
93.8188937770555
93.8415608873932
93.8717216352201
93.8781952806546
93.8682618607985
93.8916435355127
93.9209758142413
93.9247930337258
93.9423972600523
93.9678539971095
93.973756490049
93.9947974517909
94.0230311357117
94.0626356631374
94.0744556865527
94.0965720682479
94.1156244643846
94.1488123601577
94.1931253395484
94.2064945721611
94.2165688595276
94.2517982200751
94.2667184021657
94.289588980628
94.3264452092734
94.3641037501711
94.3968283487926
94.4289176294942
94.4681508975144
94.5071298853343
94.5364906394076
94.5466961010847
94.5307251868035
94.5559083115402
94.5930813706797
94.6112371301131
94.6231324627338
94.6549897254307
94.6878935750569
94.707909663776
94.726041975814
94.7513452219197
94.7560279963337
94.7649917396849
94.778971884077
94.8244726797743
94.8603336549992
94.8384174160335
94.838904064063
94.8654837579531
94.8805571428306
94.8976410861203
94.9039441200759
94.903542351575
94.9185290992282
94.9465212489783
94.986576895878
95.026918758921
95.0223805488659
95.0206776305686
95.0366526727024
95.0492230950808
95.0499139436344
95.0595771196823
95.0765161569048
95.0993883414345
95.0910967398599
95.0990275106295
95.1324966964078
95.1294039752787
95.1400778098264
95.1680168478663
95.1596452954215
95.1767489551887
95.1958296472902
95.1897475536226
95.1866461294151
95.2089313238179
95.2049234135577
95.2360350226103
95.2509671370875
95.2527283045112
95.2452796982776
95.262783840762
95.2899052381946
95.2843410323897
95.2652399143663
95.2610550414526
95.2809761266651
95.2867219340378
95.270064530575
95.2873334850452
95.2990114078275
95.3060223291305
95.3198196109824
95.3259394219538
95.3383415069189
95.3358503457693
95.3232205099886
95.3147437966197
95.3104174555124
95.3355136019868
95.3655655148531
95.3664125735091
95.3601764962649
95.3666925225523
95.35707482489
95.3551407979364
95.3681683224506
95.3648640057639
95.3495309348973
95.3601245501547
95.3901660964106
95.4073780498524
95.4153001707506
95.4178283769829
95.401937678606
95.3994674042633
95.4110860025352
95.4149551163113
95.4086736558051
95.4155389275359
95.4044872781649
95.4275778123337
95.4406594203636
95.4437601711403
95.4242631561996
95.416894682547
95.4254589934328
95.4191429970641
95.4077692165994
95.4122994682125
95.4103701970597
95.4196530758714
95.4218575870563
95.4330429272529
95.4229112025958
95.4186715665607
95.4214481072603
95.4218820989326
95.4325825181379
95.4497000005767
95.440581812647
95.432360215662
95.4344783266869
95.4388569621229
95.4489016616772
95.4606059679564
95.4607091401308
95.4546554122576
95.4546662824654
95.4445806741727
95.4548391269986
95.4749686074263
95.4849592885003
95.4919182683129
95.4912974992858
95.4817638311256
95.4632946983967
95.4574060619059
95.4524997729433
95.4632412663164
95.4776276651395
95.4787132870414
95.464235111577
95.4826351587114
95.5077035645186
95.5148380577642
95.5001875197497
95.5068567179492
95.514584612937
95.5228804334878
95.5307227219908
95.5422478603763
95.5348844739601
95.5353892950276
95.5364377377992
95.5522027506246
95.561752724583
95.5697392464723
95.5816502750976
95.5819438703735
95.5683773104314
95.5694816142051
95.58309202646
95.5907428662073
95.594731161311
95.6060604901375
95.6090171522466
95.6235625760987
95.6202090616744
95.6049782194525
95.615880231471
95.6338683778799
95.6288105017694
95.6329427225889
95.6351264008449
95.6513316342756
95.6611700431297
95.6614798227456
95.6532725520766
95.6701652093179
95.6781882686994
95.6786641678793
95.6754940418202
95.6849118558222
95.7045265322367
95.707087814823
95.681987306071
95.6693066575946
95.6876416003744
95.7075269641579
95.6951908937502
95.6710825971109
95.6632986476591
95.676755284458
95.6790494126907
95.6553443740123
95.6519370504271
95.6749295635796
95.6677041359738
95.6685487350099
95.6696058887458
95.6620065999718
95.6803599759162
95.6918532185332
95.6714644958535
95.6734279415845
95.6955081776595
95.7021698523795
95.6873057083621
95.6812773266663
95.6774956919399
95.7013719406639
95.7131403489244
95.7236544821026
95.7390739336634
95.7537909194433
95.7535273154796
95.7425024353172
95.7245873255343
95.7283057277886
95.7623133221581
95.780537099872
95.8022513966183
95.8039002974222
95.7978757938765
95.8080340914906
95.8112591638441
95.8201412526879
95.8229821230171
95.8475163873399
95.8517311244344
95.8400963550275
95.842718938687
95.8515934901436
95.8462330293441
95.8483389640716
95.8540524038333
95.8484766901177
95.8518813051802
95.8810307229539
95.8921962830085
95.8913806410785
95.8802150824046
95.8846303008597
95.9230203282668
95.9344881163939
95.9285203603884
95.9386107762267
95.9370231904184
95.9316683163161
95.9352779815612
95.947882285823
95.9572792578874
95.9791521418849
95.9951656320769
96.0149499612851
95.992434800266
95.9728770763134
95.9759141057262
96.016807680452
96.015570266217
96.0294994961013
96.0442113440095
96.0433377200104
96.053694919811
96.0527816957975
96.0591532938721
96.0831778326344
96.0840244825472
96.0949758000982
96.1258687116679
96.1401154458053
96.1091601214429
96.1115516743889
96.1416671763609
96.1411594653361
96.1207770770207
96.1317278093007
96.1589727773404
96.2052642576066
96.1525286098794
96.127534376069
96.1790131462794
96.1829281145488
96.1541927387319
96.168197851405
96.1705531035915
96.1801584618499
96.2215150203524
96.2340029333863
96.2193822820831
96.1957176186206
96.1966864379372
96.2271448615364
96.2111863794332
96.2144032149914
96.2415184812704
96.2547616638351
96.2447150104553
96.2491366198795
96.2458813283151
96.255343830793
96.2616548546764
96.2486208121471
96.2158964219333
96.2280302760996
96.2320159044041
96.2283130850829
96.2150121493292
96.2282607204679
96.2587473928788
96.2577173245642
96.2416010917287
96.2387972643427
96.2224465553474
96.2631354407796
96.3045224582901
96.2827257130957
96.2571286678986
96.3001656414353
96.2952882630715
96.2566801670535
96.2850447897115
96.3390274818351
96.3162367895956
96.2881486434613
96.2902907124689
96.282256874848
96.2972241320369
96.3124857694382
96.3130443623806
96.3255284488683
96.3136443439806
96.338740279592
96.347210425325
96.3164331783705
96.3135163360329
96.3469739082729
96.3384913585997
96.3055382604795
96.2665408143635
96.2769836021462
96.3174002484867
96.3414788884988
96.3482345304689
96.345176813029
96.3093517625361
96.2969304134348
96.289609304374
96.2929108026124
96.262308927018
96.2700159882408
96.3253227133312
96.3778406700648
96.3600410682067
96.3450177296231
96.3230433281925
96.3146807700085
96.3347801991177
96.3714725015454
96.3608668258239
96.3670470702709
96.3669043734297
96.3512008590572
96.3785417200545
96.361665832755
96.3307340763757
96.3794298641485
96.4018379250772
96.3806385293383
96.3895735142014
96.4282374540525
96.4131185911276
96.3857224036995
96.3820290680712
96.3626912643256
96.3486834620152
96.3684691422401
96.3808158361571
96.4047836735697
96.4154753995032
96.4017975821103
96.4255345879032
96.4300203445602
96.3928008648142
96.4085043840005
96.4165090751639
96.4053510420339
96.4314155233998
96.4432824540291
96.4257265875612
96.4246436625489
96.429698941799
96.4132250051268
96.3968250405097
96.4089203706667
96.3921500657142
96.424650027408
96.4367159400456
96.4326918937287
96.4322972089254
96.4257086392868
96.4001672385731
96.4012321021726
96.3958920180785
96.4087706420548
96.4176332387527
96.4262282012515
96.4278690909971
96.4416749876737
96.4548190012036
96.4491677257061
96.4290814109965
96.4218898374669
96.3926063512233
96.4019677120157
96.4364201736677
96.4716087331287
96.4668285779417
96.4584886990171
96.4338396918446
96.4107492642465
96.4064993598289
96.399715950859
96.3956311008885
96.432088896342
96.4391972174874
96.4432965678012
96.438427499611
96.4757842401749
96.4976818779839
96.4921518700412
96.4777728424344
96.4697745892765
96.4772530231199
96.4698345633513
96.4654684571923
96.5027643795938
96.5153901027871
96.5127083107949
96.4886898546775
96.48999309158
96.487750413983
96.4849337154819
96.4862075349068
96.5331786347422
96.5229776865398
96.5389070474452
96.5349251773794
96.5147562996762
96.5132840330528
96.5137802788669
96.5186280782679
96.5326556268498
96.5064606850845
96.5175942812231
96.5479366959947
96.5363411556684
96.5160606578642
96.5142727363786
96.4847472830459
96.4879912111505
96.5031367224784
96.5288784126403
96.5468087525334
96.5473979250323
96.543933937086
96.5485748012268
96.5202972139202
96.4878914349283
96.4881519574965
96.5110957359287
96.5293134680346
96.5394262995407
96.5529842813971
96.5512809075412
96.5257493807358
96.517066361197
96.5165935977865
96.527191774533
96.5382565712469
96.5480516208071
96.5145476262873
96.5314975214763
96.5391089309303
96.5186492705323
96.5246374493622
96.5295226898507
96.5057621728782
96.5179639424777
96.5081971514591
96.500631476734
96.4989187834609
96.4863491559004
96.464037608732
96.4641775044388
96.4395912342687
96.4213380266017
96.4049839118995
96.397778815543
96.3864910746053
96.3842737702773
96.3618121303794
96.3736263176029
96.4072529627326
96.4297317107996
96.4496011210439
96.5141749226819
96.4676301769869
96.3700114324442
96.3415749417329
96.4655822325943
96.5423330244165
96.4673063528126
96.4055270179635
96.5527050609198
96.5338985701973
96.4214119111856
96.4803478624654
96.5055024094146
96.4264977523889
96.5379836371176
96.5463861824924
96.4943905059714
96.4436343363967
96.4999743081949
96.5110248538924
96.4588462051971
96.4671990240009
96.5496246180318
96.5147152190451
96.4898060269762
96.4822922974212
96.4845673577985
96.4114245300667
96.39804339754
96.357750901242
96.3507256741409
96.3720816118521
96.4032260691853
96.3795405020375
96.3829866457866
96.4333667852989
96.4818253611588
96.4591870790191
96.4408965197809
96.4156381280773
96.3648112738986
96.3825675320519
96.4025717691798
96.4771238844338
96.4302565839772
96.3956099832543
96.3458859516136
96.484080105968
96.3758525173197
96.290564325435
96.1316636132726
96.3004120685525
96.2390302901582
96.2857436073728
96.1424674448836
96.367966152913
96.2538739635649
96.294340283464
96.2826094309361
96.4009193915258
96.3381739689531
96.3815531446866
96.3843054255514
96.3695583389699
96.4301714252057
96.4206007115525
96.448285229095
96.4498097112595
96.4669143773056
96.4655273112362
96.4490018787436
96.4364512519263
96.4289517008378
96.5147686828164
96.5264109073348
96.51915931618
96.4535317152622
96.4690782398421
96.497362873626
96.5217310889214
96.5434931152012
96.5611784249954
96.53492491872
96.5523193476214
96.5533836665913
96.5447853673116
96.530066087184
96.544463502938
96.5820385959217
96.5567385450724
96.5180496483999
96.5613544593646
96.5775597316233
96.6573865333029
96.6835534534988
96.6743423167495
96.6900157144753
96.7250392030338
96.7502822306401
96.7584564134687
96.7452217617411
96.7803505614252
96.8043668184355
96.8923162640033
96.9565155094098
96.9728815030945
96.9184174591073
96.9156798935052
96.9555215653616
96.9419754191556
96.9306885424251
97.0068143695075
97.0240224768312
96.9789255909868
96.9248339528193
96.9791164712538
97.0664916868973
97.073018763186
97.0602316106945
97.0898346366612
97.1247125875574
97.134530019579
97.0584289120118
96.9952836031635
97.0130379703748
97.1191266424999
97.1030741598023
97.1080332063476
97.2295522898688
97.2882441621958
97.2025054824587
97.134087396383
97.1145331580137
97.1370337804871
97.1095814423064
97.1187746976904
97.1926879940191
97.2222686289004
97.1749486980448
97.2037552485628
97.2782963280526
97.2438679163642
97.2253025737248
97.3094505939713
97.3461811604379
97.3054274526022
97.3189631862816
97.3538329648354
97.3314024283735
97.3563692570882
97.2986083039936
97.2607446830135
97.2891278936742
97.3252245739809
97.3505295967109
97.3958000717839
97.3897254918224
97.3537432341031
97.3933951858963
97.4042987457879
97.3563652110185
97.2791124716214
97.2616904416977
97.3282482976123
97.4098453800653
97.4552680068428
97.3868153065642
97.3976728297391
97.5325519897304
97.6166759631859
97.6263599178489
97.5510676534844
97.4532606635415
97.3880341519552
97.3519542970747
97.4724400044518
97.5367708343164
97.5197826346013
97.4302320889639
97.3911171662214
97.4263436042669
97.414547335308
97.4690200132062
97.5995638833991
97.6532983244262
97.5312008023357
97.5326972930777
97.7004615348569
97.6338773959939
97.6270875844814
97.7973785458134
97.8120344182323
97.7250268887257
97.7060948990605
97.7926964176907
97.8580595906858
97.8180370153416
97.7582937433506
97.7500278988423
97.8460159360241
97.9466674723398
97.9753740578189
97.8740386692731
97.8924289096434
97.9000656269854
97.9528633834144
98.0595048193084
98.0078521605794
97.9142574243479
97.8586696215478
97.7761140977825
97.8381111291116
97.9050339513311
97.9046756686003
97.9080194413134
98.0061208721456
98.0989019786147
98.0153683040367
97.9415393942853
98.1350454291807
98.3099051951034
98.2476517953738
98.224442984342
98.2772219674181
98.4625003113129
98.5507801542858
98.3038971741708
98.3460060211974
98.5070638378755
98.4736779722968
98.2789922506793
98.2640580157762
98.3413322218346
98.1691821530714
97.9885759382239
98.0935236049166
98.0468875914789
97.8783885547708
97.9197401526766
97.9565591971887
97.8698513043395
97.8953094243647
97.8378757805903
97.7230801183711
97.646824041779
97.5770122313677
97.4956528523876
97.5209029148813
97.5825334065963
97.5969521467944
97.5370672748027
97.5356996151245
97.4903326293359
97.4323813538227
97.381895785773
97.3691302354606
97.3164006401905
97.2607042541689
97.2253090311104
97.1783724222082
97.162499271155
97.1708469879832
97.0836155914182
97.0040116915809
96.9967060288694
97.0139916467974
96.9725442657027
96.8847412504264
96.8389853794011
96.9081450271121
96.9299184431081
96.94150513707
96.9407359307382
96.9256874730427
96.9309602218192
96.854661921858
96.7934366212546
96.7937284905938
96.7918665312219
96.8191364683282
96.8061253053368
96.7871015976847
96.822547836139
96.8931654493405
96.8785777811331
96.8435929844448
96.8666770337552
96.8644038225512
96.8205973873063
96.8142865123623
96.8242033364057
96.8419873188381
96.818307182356
96.8327625272056
96.887362875174
96.8539109019301
96.8295397455663
96.8621533622522
96.8086631149597
96.8003476215898
96.8421624761119
96.8683349819765
96.86841133703
96.8522470274593
96.9121342065137
96.8901326147104
96.8618925047237
96.8644058198885
96.8329928494394
96.8869491787645
96.9067001267406
96.8583623977248
96.8719267337288
96.9020632632709
96.938721078379
97.0011144579825
97.0286510348242
97.0187117309472
97.0171282668235
97.0857912535753
97.070653032967
96.9601874041283
96.8746008115184
96.8944066932316
97.0159448700768
97.1061966444032
97.0856460978797
96.9628035117629
96.9706774161508
97.0143851194642
96.9564130044764
96.9788927908676
97.068577259807
97.0476800933709
96.983932418175
97.0352652709564
97.078616181923
97.1634931821924
97.1621343904882
97.1642172821379
97.1044813186158
96.9814223000643
96.9969962486779
97.1597942846377
97.2255470655638
97.2219668970463
97.2583638230468
97.3849272946795
97.4855540053998
97.5111478071615
97.517624041353
97.5000587792244
97.4569625512235
97.4641524563642
97.4578708040563
97.3726352858659
97.3560948126699
97.3624888105232
97.3650659233498
97.4252142114279
97.4713891163826
97.5105551049547
97.6068527924055
97.6415107145609
97.5242919635159
97.4524328705331
97.4701750318722
97.576290075437
97.6698999479557
97.7600490143303
97.9164732219804
97.9032896799398
97.7689973182486
97.6512623004738
97.7056542026028
97.9105220352117
97.8658994163391
97.7477128183849
97.7164619183684
97.5934562436685
97.549953001574
97.5837020774166
97.5043595405109
97.5335139524451
97.5990272099336
97.634425562638
97.6186423781251
97.6215365780943
97.6451564352914
97.7431549926136
97.6529824507801
97.4191165605879
97.3757528996254
97.4386249764182
97.4055398471909
97.4600485671876
97.5361970389324
97.5502483047665
97.4740627983927
97.3845974170569
97.3758622654923
97.4701523100063
97.4319676566072
97.3561601851279
97.3666585881327
97.2976071855706
97.1600784224626
97.2107879181987
97.2954830573971
97.2705863505561
97.1974394390714
97.3107044214047
97.3948107926043
97.3581497353964
97.336061230874
97.3251132656395
97.2800474355334
97.4358267792649
97.570291315553
97.6654410759371
97.6063240242198
97.5868483976195
97.6862972719361
97.6882488009905
97.6576289740714
97.7215704596404
97.7748573987234
97.7955844542068
97.7075898799255
97.6401027726893
97.6205285869242
97.5948031285345
97.4836399808057
97.3494481271517
97.3318551856339
97.4051934264059
97.3949364451819
97.3985742466897
97.3634942509447
97.2661735274651
97.1923180793644
97.2079881088015
97.2282759824881
97.2287729465994
97.242042089694
97.2607291283129
97.2288261155941
97.1758701432103
97.1295854143716
97.2633018318409
97.3038754542882
97.2280810422037
97.1775730086179
97.2096859707396
97.201316826198
97.1561391764923
97.1109792335563
97.176822950101
97.1031603836585
96.8899965492084
96.8956657270314
96.9370007307221
96.9926933208395
97.0382365719129
97.0882789399061
97.0877082722037
97.0205313840101
96.998180340236
97.0269233200927
97.0932362464064
97.0509200388255
96.9867593974711
97.044926043156
97.0604394988536
97.0409919286023
97.0005172412134
97.0067675276472
97.0377200969517
97.0048913152572
96.9284506085516
96.784537220995
96.8147781802684
96.9235303706992
96.9615065962448
97.0015011102432
96.7705912166741
96.7087021839204
96.8443831886592
96.8984089171992
96.8673366383396
96.8384546789533
96.8822508720087
96.9505144818811
97.0023384330143
96.9265146750364
96.8920102548196
96.832268809085
96.8401855997577
96.8084284589787
96.819286678414
96.8009930815544
96.8088147483822
96.8512499988373
96.912038127546
96.940294334906
96.9470922525689
96.91681968432
96.875772152821
96.8838310598682
96.8589459749618
96.780022749014
96.7896725550931
96.80118960353
96.8283739910728
96.8855904645967
96.8116419874114
96.6081547009885
96.7260476405479
96.754037074384
96.8023153112099
96.8316181829146
96.8466852680664
96.8149314476423
96.7849244611742
96.770220304679
96.7773031400609
96.7759212390069
96.799775474526
96.8248230506194
96.8447620571423
96.7994699958882
96.7573258211564
96.7869552007566
96.8226912289227
96.8243693787987
96.7979764951062
96.79977371092
96.6077235560442
96.4599260240056
96.5058786834361
96.5073655470945
96.5869974777151
96.6806184115523
96.7720651028466
96.7669296417948
96.7765033119535
96.774892979847
96.8126336580426
96.7841701753869
96.7402061267992
96.6848031425186
96.7428986289188
96.7607981179158
96.7934687978238
96.7593214294413
96.7773767993592
96.7555635392272
96.7807754413496
96.7609398356469
96.7984247789546
96.6873408589908
96.6070925047039
96.6244298234153
96.7892261294809
96.4946035521219
96.2834288181818
96.4772875318366
96.5319008114377
96.6652119739962
96.727186656893
96.7563381943601
96.7323190822787
96.6455021234703
96.6549914131443
96.668179858371
96.6682755286812
96.6740519280887
96.6809273122749
96.7595201012866
96.628707352763
96.2954769264006
96.3773441155686
96.551152859735
96.7165800690291
96.6526214716781
96.3369208375297
96.5033565024933
96.6402447938081
96.6385489334833
96.6386061415431
96.647753822871
96.6874421606648
96.6557262844891
96.6086605174717
96.6462042035783
96.7031222637861
96.6857812663893
96.7257215821204
96.6943647970974
96.6834530602142
96.5754180433897
96.4362102829787
96.5363317354692
96.5802108298613
96.5739294446475
96.6265909198514
96.6118832691806
96.6238769553671
96.6651159322259
96.5706851502248
96.3662766413874
96.4334166819733
96.3659458237971
96.35698030747
96.541759513334
96.5524178991364
96.4782001043579
96.4274750307525
96.5699269219478
96.5313229257306
96.1617513069365
96.1964313886001
96.1460932660952
96.4078144083901
96.5360638035885
96.6100409403459
96.6191470257302
96.6780277207499
96.4116154068026
96.4387469053522
96.5239486007478
96.5909927954949
96.5198348580806
96.3403240406445
96.4071663795183
96.4740983257226
96.5406576184379
96.5768636029688
96.3809348236169
96.4233562527754
96.6011919244446
96.277135764611
96.0136909036862
95.9841819198319
96.2943641502715
96.6216538291876
96.3091173683999
96.3096400675775
96.521103896333
96.6244003728265
96.5979298526356
96.5980055289405
96.546956413346
96.2005212198045
96.2660507456219
96.4558001638072
96.4931538895949
96.6135819531415
96.4228010060336
96.3191425137821
96.4737982379384
96.5623869941185
96.5432582905454
96.5976074700806
96.2309203034785
96.1111159438781
96.2724424002018
96.0958135628307
96.1849691969305
96.2632158405171
96.3894953312762
96.4412258174417
96.4345831324679
96.2372906143648
96.3313777721696
96.5778928289892
96.4565001938953
96.0699732273837
96.3283431922449
96.3992441446649
96.490088486366
96.5865013854588
96.2072333608265
95.6213278099648
95.7548983940181
96.1667428480237
96.4474644909506
96.263200698761
96.3036617194653
96.4841157368602
96.5480272477538
96.5425112167731
96.5118828630162
96.5155080160817
96.4104797711855
96.38977432635
96.4192955014576
96.4222019989185
96.4683182401319
96.2694011064236
95.8125543650436
95.585939472781
96.0268240655107
95.8903710501005
95.8585476493671
96.1915653299069
96.4030362374603
96.4864116551673
96.3687626749118
96.3289302420878
96.4035864822031
96.4473042645676
96.1726746814462
96.0174191515436
96.1428714302386
95.9878003881916
96.1611875158681
96.2846345410337
96.305707340505
95.3260894107992
95.3707243362315
95.8979269031842
96.1569313549087
96.1738205415069
95.4482048646076
95.7852699508564
96.2306490159514
96.3096753830921
96.3646019536569
96.3286287915934
96.1425532417544
96.0532011358259
95.9623401277125
96.0137494582314
96.1682319366708
95.9327629647067
95.2006639174856
95.0377518950155
95.432612351
95.9558679128914
95.9786727734468
95.8266904864788
95.9824898386312
96.0638267482451
96.0916537973919
96.0503939559181
95.4427651362583
95.6057640770405
95.8722790773694
95.9243838148937
95.6183501696026
95.7779839664322
95.5178148253917
95.1809969369558
95.54406793405
95.7673520446016
95.8583843040531
95.8242544539608
95.8853335271471
95.5134595455537
95.3354577154631
95.5409999494469
95.631018351733
95.7082100968821
95.6980345509301
95.6426557430212
95.5583771053439
95.531431476429
95.2004407866755
94.7699162642178
94.0407551598437
94.3495476285661
95.2171548202229
95.4761886899271
95.5968580013492
95.2274103414179
95.0330672805769
94.7985161197738
94.6928334855399
95.1746048651536
95.3588375656658
95.4159551247888
95.3968617069357
95.3979722432736
95.3294967999088
95.3736503260688
95.1635860505158
95.067799224148
94.9140938174461
94.211555888958
94.7866884632935
95.2781916513656
95.4306757911903
95.4585805770365
95.468891907945
95.4471719280154
95.3813887062347
95.0785043555421
95.2202393313977
95.3259126019589
95.4264048475858
95.2247961259808
94.9290751439638
95.2137980950478
95.4133147762454
95.5409589078916
95.556651932592
95.5802645262654
95.4522926609581
94.8621787613771
95.1543956857124
95.5137396675875
95.6512144217576
95.7479465074785
95.7861548380253
95.7853735876946
95.7191070724674
95.6197303438272
95.6964963598736
95.6992328928818
95.7498518023626
95.8127329638094
95.8462740466508
95.8126514261897
95.8042262244001
95.8503175429783
95.8674000198197
95.9187056103003
95.9315443996546
95.9700539922293
95.9758106717465
95.9692807129028
95.9638364273353
95.9292087729307
95.9863316967797
96.0359919710864
96.048984383767
96.0699129563155
96.0705074074506
96.102467399197
96.1127024754219
96.1207729794871
96.1253312648972
96.1647962340358
96.1718128744619
96.1667782887472
96.1600011017283
96.1754020866928
96.158216638498
96.1963808541528
96.1481583881958
96.1590545259195
95.7744560813475
95.4879527610044
95.9865904240159
96.1838455124922
96.3060716078732
96.3018451040017
96.3579642481542
96.0017172406925
95.6669938109458
96.0041480579192
96.2162667409585
96.3182969831099
96.2369514936079
96.0884325451469
96.2475043290034
96.2591105957263
96.3409963197351
96.1156364517097
95.3053136528475
95.0928540617289
94.8328661506922
95.538132630847
96.2072929013998
96.3647475525064
95.8897145105345
96.1287428783749
96.3412297001321
96.3892494063101
96.200276297547
95.9740445021817
96.214971726295
96.3011616495736
96.3986379182664
96.2684500155217
95.8553097785299
95.9310097664541
96.0029327422812
95.6873944047289
95.7525867489155
95.6155806991652
95.100439787474
95.4592152733169
96.1868950932068
96.4503846325889
96.4463858457271
96.4456026250792
95.9728598825454
95.8915156857614
96.1250778445204
96.2684808251455
96.4692355005594
96.3772962272446
96.2334404997345
96.1608036137503
96.2453176494199
95.8720958095363
96.0589465780773
96.2990442407633
96.0120113346101
95.8211577385483
95.602150737347
95.910807473565
96.3197390459517
96.3204379236089
95.8119231874426
95.956570830913
96.1124782494778
96.3369585890292
96.504491604927
96.2055973768221
96.2725865756799
96.3861321055612
96.1068021127279
95.9570128697272
95.6497319303705
95.3414876162879
95.275189247927
95.8487652039482
96.437356819415
96.5994228834002
96.578072551172
96.5177724346113
96.5615804100153
96.4102995697657
96.0883487053183
96.4109817977361
96.1606217947778
96.0895045435757
96.4340315529173
96.5541538729183
96.5786553779957
96.5558227914399
96.2696292147928
95.9157152336909
95.9311079443556
96.1681888437518
95.954006545078
96.0595415039043
96.2130739099821
96.2434760840217
96.1420167093846
96.0589826467554
95.8733938140272
95.799003094464
95.8447193918037
95.836620026343
95.824044336426
95.7493612278758
95.3702726205684
95.6013566388713
95.5432003583518
95.2811577343133
95.1275708478818
95.092790478096
95.5391205204795
95.6337721053159
95.6312904929727
95.569787207398
95.5001875991149
95.4043687347441
94.9335478199151
94.9800006942708
95.1121703597474
95.05502196066
94.9716190914815
94.8770099238809
94.5747879517269
94.2138357296107
94.0492787343308
93.657484965093
93.9683226159001
94.1431667982755
94.3702992542674
94.4083268315278
94.2734955645199
94.2803790323673
94.2798844623545
94.2403905807646
93.9904229149334
94.0092867600576
94.199486702086
94.2293322056766
94.2844591517607
94.2666497721873
94.2399359885124
94.2154657306789
94.1879999662047
94.1545446446499
94.0753287319844
94.0372664260488
93.5279944448396
93.269560574079
93.5777426842796
93.5665547005037
93.5029665164997
93.3297854122737
93.2110610356957
92.9519610850744
92.769442268247
92.8373502342143
92.8515654660407
92.870646221624
92.856114270114
92.7865311291474
92.5943158324813
92.7549796528889
93.0014939812265
93.0582475247981
93.0677788104399
92.6409375157978
92.9644302856072
93.293404423791
93.6123726179284
93.8331188498996
93.9916394222926
94.1029807237803
94.1440503544301
94.1516801929856
94.2100268417027
94.2729315191746
94.3264847881326
94.3944089323578
94.3946914122447
94.3968408865504
94.2378419528332
94.2644945432964
94.4793047603032
94.5405982806153
94.5840846337631
94.610238854405
94.4753960023215
94.2457783437712
94.4494853417618
94.5427965905037
94.5033395135127
94.4202985738831
94.4543186715114
94.6677208857896
94.8121858152842
94.828021418145
94.8564812712623
94.8103401995838
94.7577788250253
94.4654865203119
94.4721583087479
94.5957100817224
94.6051158023635
94.5540558900065
94.4880130312466
94.3702177995887
94.257939367678
94.1015145889056
93.9453253380084
93.76366553907
93.5875412531879
93.4556157854764
93.2149668020931
92.9736409895209
92.7624857402559
92.639030615908
92.5855816725914
92.4710531778472
92.3883641289643
92.2422476456499
92.2432493767232
92.3377305463134
92.4063162931056
92.3955876231017
92.378233484606
92.0711429453683
91.9487717520514
92.0516562996306
91.9920646228237
92.1419764065638
92.1851250424757
92.1960496603634
92.1982034117511
92.2089127124938
92.178114193045
92.2214459557991
92.3154194179488
92.4111781581202
92.4966304781339
92.5555686655517
92.5980977932984
92.6525246577601
92.6895728830579
92.6697298757151
92.6171469635332
92.5200987232307
92.4080725868689
92.2678065359264
92.0978479315992
91.8513476657904
91.509848417422
91.3410351242472
91.2795023503609
91.2688678246937
91.1255207303786
91.086474667493
91.0434882900287
90.999178332828
91.0198663141906
91.0889121671576
91.1765361493406
91.2687725160318
91.3780524635912
91.4728979209854
91.5427337732586
91.581692103191
91.5800997393937
91.5353552451076
91.4645588321351
91.3811658267226
91.2516980883198
91.0488188817766
90.834689881684
90.5961059077613
90.4048648335364
90.1971132725948
90.06836306547
89.950424058629
89.8453237068773
89.8052618561664
89.8478448835405
89.9744130295418
90.100317202968
90.236193424824
90.3985308110484
90.5850413593283
90.777693092453
90.9780647149872
91.1953887311783
91.406310981494
91.6031436421012
91.7873137443887
91.9723252733002
92.1492512741304
92.3134867900697
92.4561746410459
92.5833853001898
92.6888767652612
92.7860122374814
92.854962067851
92.8926791251898
92.8966610641691
92.9095483394114
92.9278973641673
92.9468440064786
92.9652725463146
92.9610877851783
92.9516864991264
92.9411171199479
92.9000773364545
92.8400034493358
92.7622985425894
92.6668672112416
92.5629924117909
92.4841008694599
92.4629456075448
92.5092013186546
92.559017041485
92.6063811432351
92.6440160609561
92.6859016757605
92.7321679601874
92.7893208966913
92.8441430432506
92.9210205161406
93.0250392157889
93.1220202772918
93.2208675020813
93.3046068070057
93.3652865925255
93.4147231932509
93.4761646805491
93.5283314344543
93.569482466796
93.6133690689641
93.6471623189335
93.6757811440604
93.7377312125017
93.7885656993872
93.8259126004518
93.8633463887672
93.8889089627862
93.9014314104508
93.902714216948
93.8886767853707
93.8636686459349
93.8379183297761
93.8204446223759
93.7905209088063
93.7509592723864
93.7269624455434
93.7369005775109
93.7727617710799
93.8081239064275
93.8587311634206
93.9105592434703
93.9561798715174
93.9971961100673
94.0336199262014
94.0547802703577
94.0615317914165
94.05531965439
94.046150317295
94.0523760765782
94.078319592443
94.1282959323307
94.1962636441304
94.2827423374779
94.3862301048472
94.4793742941302
94.5692669412959
94.6578823329505
94.7428136222501
94.8309441736336
94.9248525354648
95.0154186459892
95.1015029183036
95.1808771331892
95.2545102176493
95.3292849080122
95.4019830694704
95.463252497144
95.5170796830517
95.5589779619815
95.5829748942239
95.5885348662445
95.571652703423
95.527305852442
95.4505271782064
95.3217148351754
95.1381582371757
94.9304290839558
94.7271243239983
94.5437612832282
94.4090266422899
94.3291546192058
94.2974082551388
94.3047956118404
94.3252259166432
94.3566400828039
94.4205011629776
94.4924531183319
94.5647315872491
94.6529977955758
94.7581047351882
94.8731774465135
94.9811039229817
95.0805486833528
95.1881862907598
95.2872781296072
95.3681148284115
95.4399612975255
95.5016313466458
95.5472765254618
95.5902492531648
95.6148634930541
95.6223884284285
95.6094735239777
95.5733883615595
95.5195751050369
95.4534370728355
95.376635758854
95.2895669714771
95.1828776979106
95.0552813481721
94.9121041089015
94.7489793724935
94.5605775649773
94.3379186080537
94.0765843654783
93.7798525332209
93.4416538712058
93.0494882959415
92.594844564796
92.0954810482807
91.5533053120985
90.9911701783508
90.4350984902856
89.9058052507413
89.4237587842636
89.015837638869
88.7080449028288
88.5045661076387
88.4035516109868
88.3947748443918
88.4703401938619
88.6061673034139
88.7577918415013
88.9160284632262
89.0882179145667
89.2678275169202
89.4475944346439
89.6250486217703
89.790552205031
89.9461457573242
90.091102203423
90.2283775372041
90.3578840661871
90.5034134500786
90.6854950802312
90.8973732146963
91.1300208052316
91.3677291679277
91.5986632938684
91.817356000017
91.9988588180133
92.1346027988655
92.2175699089672
92.2355835355518
92.1919795880454
92.1031398383555
91.9736554513135
91.8146452659671
91.6430465942938
91.4748514769635
91.3052703474113
91.1166991947812
90.8873716733606
90.6059342006974
90.2689744994894
89.8924945600362
89.5132151188243
89.1686920874083
88.8619260329869
88.5985464071449
88.364274560388
88.1245113758175
87.8563859657411
87.5390774289214
87.1516133847405
86.6849743961432
86.132961859924
85.5229155391285
84.8988462653036
84.3167389019207
83.8374313311217
83.491599250862
83.2805927474419
83.1969250375801
83.1967445582835
83.2304511827198
83.264422895025
83.2891057536662
83.3076441395951
83.334179633237
83.3841977872741
83.4681846158453
83.6005359084927
83.7920025397231
84.0176928315685
84.2613381950179
84.514240478939
84.7642418095674
85.0009697035144
85.2345394439616
85.4551374151537
85.6577663151543
85.8324413267364
85.9624483173773
86.0545184983724
86.1243726972816
86.1880070426203
86.2495807311794
86.303080865616
86.3490113515939
86.3850278069499
86.4010303955051
86.3710401998357
86.2917552767009
86.1763002174557
86.0038337323914
85.7547581924523
85.4780550110142
85.2108561769226
84.9620618569715
84.7451018112874
84.5581967735324
84.3747387343382
84.1754748723233
83.9429842253219
83.6643775728236
83.3271892245401
82.9259887921761
82.4678387485742
81.9433602394069
81.3503889698162
80.6915284058221
79.9694211003974
79.2014050622036
78.4124666559978
77.6436477080026
76.9433724989626
76.3539609755316
75.8877700039237
75.5218357794329
75.2314955821045
75.0129987792496
74.854936852448
74.7546198523649
74.7276137828461
74.7873263784674
74.9281690054191
75.140430240185
75.4129218238083
75.7236684419943
76.0522164705468
76.3898532512181
76.7320141228286
77.0411127411703
77.2737469343475
77.4015278525442
77.4086156489624
77.2967452840099
77.0644112249936
76.7194609276614
76.2868313616621
75.8028014444087
75.3011597973329
74.8005091628017
74.3427379502131
73.9639493758996
73.6701862219841
73.4592968501218
73.3312213818866
73.2648320586096
73.2410645030111
73.2648120380878
73.324313537237
73.4073537208847
73.5178918059061
73.6401181538949
73.7670721949211
73.9036595849665
74.0285936679675
74.1470193370068
74.2621364759987
74.3654450209341
74.4473705072846
74.4961917267853
74.5220370846273
74.5343573320469
74.5421422477968
74.5655625326273
74.6150288207073
74.6798433023096
74.7390256621704
74.769301053499
74.7702590227741
74.7568941793555
74.7391650853725
74.7090264041278
74.6491287573237
74.5479973216752
74.4212331687042
74.2892232968387
74.1605893305842
74.0404392283866
73.9602124029503
73.9341003384601
73.9561155974316
74.0174884075418
74.1009138167903
74.2147907387051
74.3466539346129
74.4707859425959
74.5956575947993
74.703873771556
74.7720812859254
74.7863910979431
74.7310179766071
74.5982980383934
74.4021871268988
74.1876901132394
73.9960409498552
73.8717074558068
73.8509366674026
73.9399890458007
74.1258242329734
74.3889326693662
74.6946843974712
75.0218774572221
75.3561697256669
75.6879290162744
76.0115035527924
76.3351629169035
76.6423629333925
76.9160528264544
77.1727140138643
77.4309577981074
77.6837743547589
77.9236507128834
78.1578556875278
78.3888553116272
78.6240090773494
78.8577766013411
79.0787200633039
79.2960439091459
79.5083990622336
79.7310349158225
79.9529546189756
80.1696793010233
80.3807592956807
80.590465993774
80.8005873922466
81.0022614940033
81.1974379135449
81.3962591640207
81.5917284047658
81.7866379835343
81.982040878333
82.1773074996084
82.3531614702748
82.5130051943896
82.680174857346
82.8528744825929
83.0210250186785
83.1686030915635
83.3146904361695
83.4763863897181
83.6095031512427
83.7295643838527
83.8687546776077
83.9995059640448
84.1056023382749
84.1986645882423
84.3037486281742
84.4150539316942
84.5254045250113
84.6090062860195
84.6843172572586
84.7837332107114
84.8811360509856
84.9733313706878
85.0614872913264
85.1554890254242
85.2590836856807
85.3626575946531
85.453768137125
85.5460418111597
85.6488820471503
85.744975539562
85.8235948830413
85.9053184142055
85.9966544525247
86.069623531149
86.1198136069615
86.1414609016586
86.1423341457458
86.1664357310004
86.1924456481419
86.2072361460487
86.2167273340561
86.2245793603011
86.2180199213209
86.1809896437027
86.1602384483164
86.1638057743904
86.1606950314606
86.1507238775103
86.1344791788253
86.1162125127312
86.0966774960602
86.0771348590978
86.060677032149
86.0443771518319
86.0195293620716
85.9914052560249
85.9821237563147
85.9782825978237
85.987739637956
86.0501820332355
86.1088488494518
86.1379615389065
86.1745315507753
86.2540259355408
86.3529631790066
86.468896652348
86.5845637467635
86.6777863766033
86.7772736073684
86.8906445852448
86.990710358385
87.0818348318302
87.1774741575786
87.2754981208904
87.3635516276813
87.4591192345414
87.5802427093521
87.6668549044864
87.7369810759744
87.8224384444947
87.916929600501
88.0042591432353
88.1010606341996
88.1848863701205
88.2486430157696
88.3329734650939
88.4300638431086
88.4962111617169
88.5184554849749
88.585967523795
88.6754943703407
88.7334975002553
88.7947662299406
88.8439672115956
88.8731684269084
88.9003843773749
88.9680514721987
89.0265761908695
89.0546832530002
89.0945933128435
89.1612338291691
89.2324504702627
89.2962324599712
89.3300532100649
89.337492593002
89.3809053600107
89.4261113218824
89.4619329723354
89.4942062154338
89.5198043980989
89.5484507157455
89.5876315510215
89.6199899252982
89.6476335387389
89.6571489000153
89.6668523084929
89.6984966093815
89.7212738836322
89.7547768248549
89.7837561727818
89.7905325177954
89.8036032110653
89.816126812264
89.8360494207906
89.8659313331881
89.8768148318701
89.8952197004348
89.9274098674793
89.9803970240414
89.9989462458388
89.9563087969916
89.9587115535402
90.0061944688857
90.0541836282496
90.0667508965719
90.0820017396006
90.104509509982
90.1196660688501
90.1377941450169
90.1537239950896
90.1465025142953
90.1365139118406
90.133033668688
90.1432922917773
90.1617995300196
90.1867213655724
90.1808838797806
90.1867797510979
90.1783232748062
90.1764200006249
90.2141823953615
90.2343534972404
90.2586418425249
90.2410474251814
90.1918998309
90.209214011582
90.2504369090993
90.2472937674682
90.2328622951614
90.2347528463365
90.2721016120973
90.2357696277372
90.2093551631889
90.2787227642201
90.3278794849802
90.3137977849864
90.292768647565
90.2821157857631
90.324839825648
90.3391729780764
90.2743411510058
90.2505443914514
90.2869023064154
90.2961285136523
90.3069260373694
90.3205426474771
90.3076986857972
90.2604382739125
90.2323964899872
90.240628074765
90.264368832923
90.2708612194088
90.3008346043151
90.3274824811076
90.3059817456604
90.2799993324438
90.2684794931983
90.2138678237331
90.1801208362421
90.1804584828971
90.1716330222266
90.1892344201928
90.1793892316787
90.1515735881686
90.1131610821391
90.0736601504033
90.0955956222082
90.1226206327739
90.0719659560843
90.0355018138252
90.0304909017056
89.9670899712698
89.9654130861794
90.0062881101597
89.998355489092
89.9344089724003
89.8570730777123
89.8422075243618
89.8256837212873
89.7772674612194
89.7399751638664
89.6981348590427
89.7161891651816
89.7386355499379
89.6671143526916
89.5882066187426
89.5302347207154
89.4949414238851
89.4913071310862
89.5114160183074
89.5352416210212
89.5075364746053
89.4569105309267
89.3743668098374
89.2882064512175
89.2444333963383
89.2024785252525
89.1726934762037
89.1461143049223
89.0894387313458
88.9800542315316
88.9549077521203
88.9426856044143
88.8350982940347
88.7479641719633
88.6014037498689
88.4125629295073
88.2989199926023
88.1471713378876
87.9587519504892
87.7624109293803
87.621658478324
87.5227785454273
87.3533560704564
87.1899131780415
86.9814965285162
86.7015652327775
86.4969291796589
86.388113318481
86.1923476475634
85.9291153404657
85.7408543997841
85.535205608967
85.2853303661214
85.093399480537
84.9141068653361
84.6896851187566
84.5112155067378
84.4113405988179
84.3592852195458
84.1910573932544
84.0915535354138
84.033379872826
83.8791594909432
83.8236707275805
83.8502701794806
83.8404173715211
83.8633910759354
83.9365481372972
83.8583701656691
83.7229422721534
83.7493664408715
83.8228377167096
83.822492285225
83.8918625056493
83.8315485988951
83.7345370407207
83.7939288956112
83.7956609072425
83.7963228317908
83.7225869579492
83.6504657287886
83.7046863332177
83.6408809580101
83.5579171895091
83.6139978750072
83.6083118801152
83.424743318047
83.1514470613594
83.0190040166255
83.0384987779613
82.9828760489472
82.8373042964659
82.6078878489923
82.1933007855235
81.8905626557576
81.5707330536592
81.2126266951565
80.9838192914983
80.6662457425021
79.9441141100802
80.0529111116402
80.2684173191071
80.0778428082602
79.6113652304414
79.2229943558138
79.1120509905148
79.1638168186317
79.3068761681213
79.1655638396683
78.9390607984247
79.1291601726002
79.5308098535422
79.9534796460986
79.829260688008
80.0659055250772
80.2321562227222
80.1429363660423
80.4443718871751
80.5804278911268
80.6904923448393
