3596
4000.36533379555
650.420452594757
1
128
2
98.855894354683
98.8399718399849
98.8210562830586
98.8591850244112
98.8980506549343
98.8727981842568
98.8063867636522
98.7808511157274
98.7608511405873
98.7851525408833
98.8241014779935
98.8019050124428
98.7714059063487
98.7910042469081
98.8113971718685
98.8109205128725
98.8105600650549
98.8545816467853
98.8450482826097
98.7896331849347
98.7611071501848
98.7963925938273
98.8161043595583
98.8143051747997
98.7776071272775
98.7770073062126
98.7869295074289
98.7761636450942
98.7937047140889
98.7925726987756
98.7761553175592
98.8428071625357
98.8656314769828
98.8269993518848
98.812162582156
98.8633456440392
98.886226481628
98.8521036057624
98.8346646641979
98.8053012883644
98.7755539119354
98.800626988537
98.8148231534767
98.8180874643838
98.78535966314
98.7831366284427
98.832579887323
98.827026353653
98.7816180476802
98.833538896732
98.8501454560972
98.8058912575583
98.782296133455
98.7750187038537
98.7771928366169
98.7722825117771
98.811451342829
98.8325523302854
98.7222943312474
98.6727489455073
98.7049134683082
98.7714108749865
98.792052549238
98.8031602763247
98.8044897125231
98.8308785200323
98.8513407494869
98.8665678633805
98.9067057724924
98.8648708333354
98.75577275357
98.7245343820261
98.7387723657203
98.7221237419891
98.7102989454611
98.806736113205
98.8682893098997
98.799101868823
98.7082749588226
98.673968885494
98.7467816453365
98.8815474087147
98.8390256429354
98.7241511172727
98.7851038968944
98.827203539907
98.6820294400566
98.5985826271401
98.6954353406847
98.7787831621059
98.7705268086979
98.7806562790908
98.8559415941573
98.9134644359035
98.862314981778
98.8391300120694
98.8981824100422
98.9441765628709
99.02160601835
98.8751647043884
98.7790112625486
98.7585286419144
98.5553046942615
98.5966117968377
98.6354010263093
98.6125510161417
98.5256859981307
98.583744759252
98.7001757742117
98.7911734656942
98.8394936451234
98.9172591793658
99.0142928564562
98.8592448742928
98.6486807784841
98.6361339357585
98.6790079500247
98.8143245924589
99.0308479470211
98.9047712609801
98.6721874491252
98.6050807885244
98.6237050311124
98.794752996156
98.9411965642804
98.7490528178259
98.5262507994534
98.5865158672898
98.729826845752
98.8077106220934
98.9962808518115
99.0084639734589
98.7601511449294
98.6474508146446
98.7999666826731
99.0305352487064
98.9161257487879
98.5355407334012
98.3868071971644
98.6053124584396
98.9201054423947
98.9211338586624
98.6007119950652
98.5658140098393
98.7010468231242
98.6418011737029
98.629373387801
98.6992318510212
98.8294680615067
98.8893267413281
98.8176092774112
98.9247917638878
99.1637010031951
99.0536409051414
98.8142057593118
98.4392604210389
98.172657893041
98.2902615271831
98.4950465679632
98.6268748614763
98.7257175842282
98.8455633958873
98.9107989526166
99.0309512778211
98.913518344011
98.7759025491843
98.8716912853632
98.8994500331384
98.818130746686
98.8884607890284
98.8254522094089
98.5748457059825
98.6181155553081
98.6766542001861
98.5442212286621
98.5344730040465
98.7951892707462
98.8339136620085
98.6661791391238
98.6584945432416
98.7658846160769
98.9348895696695
98.9630790286328
98.8606065667284
98.7840613494993
98.8158180197016
98.9886285390487
99.1867762533194
99.1391315492573
98.7871914481839
98.4893603755062
98.4931328998549
98.7974271483688
99.1508095113194
98.9580610661491
98.6390415596203
98.605936100904
98.7093887989224
98.7837078611119
98.7979408372261
98.8484059807578
98.9334558158244
99.1282198023516
99.1805728295197
98.9057636002641
98.7389570773552
98.7547187973844
98.8987953575213
99.1254996881792
99.2033327016889
98.8214523522028
98.5776290051573
98.5715195012561
98.7473800635254
98.8929533106024
98.8394175146076
98.7055707247929
98.6986867686208
98.7935030634222
98.9121733490129
98.9321473609966
98.9341116769273
98.9399510594006
98.9743780605248
98.9898484295102
98.9928957051855
98.9937071864477
98.9977786255634
98.9404907866356
98.8969008183189
98.8884999423817
98.9766229009817
99.1206268410054
99.0714588275841
98.8750333813597
98.8184597524948
98.9044254860412
98.9771814798613
98.9455433279507
98.9484501058425
98.9263918556733
98.9506425164896
99.1078713217191
99.1497933510547
98.9029842326563
98.7581594131694
98.8592944149066
99.0686897074718
98.90335862704
98.7892817076322
98.815320531989
98.8743078932568
98.8896336825394
99.0770766418628
99.0998972764056
98.8546965041908
98.8304994881767
98.941804438211
98.8292153446334
98.8153833866937
98.989019566802
99.2924908277141
99.2886344375449
98.9562842103753
99.0132921512669
99.0256806142404
98.6720737677083
98.5480765047883
98.6412360682551
99.0782172407903
99.3669476671977
98.8268589766518
98.2448511055324
98.5175523358843
98.7468035126155
98.7273377386743
98.7623825680975
98.8316863803507
98.9923011737121
99.111714072452
99.1462432455731
98.6975797854828
98.4144377528496
98.8605961986387
98.8260981947041
98.6092912132667
98.5985086681442
98.7335572867058
98.9004211170806
99.0288525205071
98.9726265728489
98.8710786712339
98.7318655448582
98.8759250856849
98.9450745122987
98.7982568965833
98.8170211606836
98.949678618683
98.9196363000325
98.9237391846441
98.9024845897251
98.9091514239938
98.993479227182
98.9926348482878
99.1717100568937
99.2734017577389
98.9913064471286
98.9436390247438
98.8904153379768
98.7138498869486
98.7342966221062
98.820415734734
98.8601313524632
98.8926544862769
98.9497872110475
99.1505523150469
99.2358065353357
98.9831990122558
98.8768339575609
98.9485973988072
98.979142128828
99.0121673070201
99.0181416186103
99.0491568067026
99.0950003563095
99.090775336071
99.1140835444381
99.2015756860241
99.0522122130859
99.0387354613911
99.218357116043
99.0024142025191
98.679542094174
98.6449031916118
98.7596212015191
98.8952869343297
98.9390799916783
98.9664491315261
98.9800537837202
99.1086508809402
99.1317968493767
98.9875397821816
98.9983445387987
99.2018752058112
99.3609826842188
99.1569347247433
98.6059664848849
98.4051790498644
98.6596551242213
99.1019469952423
99.0347674660041
98.8591008688991
98.6795736098676
98.5269447642097
98.6022396436967
98.7871185581096
98.9122230578311
98.9385491614889
98.9898703298408
98.98423673946
98.9731741421429
98.975323818762
98.9563720237784
98.9804139805958
99.2015996714859
99.2647144383857
98.932396162524
98.7497989988512
98.7541122570739
98.8798032546029
99.1450174271166
99.1496022634432
98.9355082765677
98.7800666227768
98.8109954553741
98.6879734457687
98.3772582298595
98.3854899893357
98.524413630301
98.7145334147342
98.8159976416645
98.8027664036387
98.745181328051
98.7923755797553
98.8562162037938
98.8483339036973
98.8073836810774
98.8471830507812
98.9391114840461
98.9868546631299
98.7925746947235
98.7415664149024
98.8347782748542
99.0596292226854
99.1547956937736
98.839266471454
98.4020803191302
98.4675585172012
98.5178744210391
98.5903519618163
98.6450677112697
98.6978743590407
98.7413012030941
98.8194745202768
98.9106945680995
98.7727447613936
98.681820959745
98.5625241906059
98.4417742821811
98.5588268826576
98.5579874298599
98.6442248741538
98.581298611273
98.3739727450528
98.4192676979232
98.6391586822823
98.5461405907335
98.5666224897664
98.595958277954
98.4336246707317
98.3928662544918
98.447372936121
98.5596968892642
98.6278084168953
98.6575790263725
98.5723437423373
98.5133281722007
98.5434261441391
98.4768921439077
98.4926956543651
98.552578016095
98.4464700831703
98.370024544571
98.4110909759296
98.362781586698
98.3853332563987
98.4858220297919
98.7241304399147
98.5971772324189
98.4622475587158
98.3245925615423
98.104811304973
98.1661449304241
98.2684409724976
98.2956468499781
98.3067140730611
98.3016899930986
98.3114691578512
98.3387462442556
98.3884624034578
98.3677382592884
98.3010243136428
98.3002470312127
98.3257105902859
98.305230747976
98.2923826758549
98.2942418936996
98.3426815657272
98.331279858403
98.3799250755457
98.3314539625194
98.3050005507484
98.1424368777727
97.9486278758878
97.9542739001045
98.0064720650073
98.0548122293102
98.0712956435898
98.1202129677239
98.0739116313945
98.0119143176974
98.0397049880552
98.1039204470825
98.1634446799802
98.1784808134144
98.1782651222648
98.1844764443512
98.1249901096228
98.0340580960154
98.024442928398
97.9987102680876
98.0465675670576
98.1039591373365
98.0290140535392
97.9301606882546
97.8861194112404
97.8653512457698
97.8420711827513
97.8264440064477
97.8633522172346
97.8385675354161
97.8097293361781
97.8208639690829
97.92644736982
97.9174756883059
97.8173726629612
97.7822946079395
97.7996345502059
97.7826010987933
97.806343350624
97.7964851678227
97.793761464227
97.743387540098
97.7209248797458
97.6894424427257
97.5968310307639
97.5828724254894
97.6893289959166
97.671542036761
97.5768562395677
97.5525792751778
97.5492734124863
97.5476222725474
97.5754953495426
97.5487031198933
97.5192274487756
97.5088273127772
97.5223661020135
97.5063246464548
97.5010859898698
97.4687594948654
97.4588304747573
97.4565062404464
97.411976157475
97.3665400027421
97.4091382551101
97.3581209999611
97.3393824808486
97.3535934192099
97.3490833048328
97.2576768874067
97.2235926306633
97.2524184960597
97.2835774022525
97.2358131816147
97.1877735726042
97.2129131652987
97.2452577402419
97.1670790694939
97.1295008218851
97.1540825982423
97.1465730903823
97.1072024772745
97.1210164515981
97.0994325936604
97.0770744218556
97.0155194185885
96.9658538995727
96.9437225546759
96.9513776225324
96.9050410999765
96.8857056697842
96.8565327630269
96.863205564996
96.8524968409972
96.7995819187286
96.7747275626599
96.7869803384234
96.776139702038
96.7362437207668
96.6776788673925
96.7232228099414
96.7802070420676
96.745507168095
96.6810016128419
96.6744711112417
96.6453772378095
96.6343378502964
96.5727164713774
96.4991425381968
96.4735228371822
96.4843758460806
96.4588643991381
96.4836134853962
96.4814246686388
96.4118786711828
96.2962434983397
96.2653336634254
96.2560547935749
96.2246010499323
96.1949699055626
96.2289600529797
96.2225736509564
96.1637845345243
96.1131781217297
96.1284207976716
96.1455319306816
96.1304044911754
96.0682263764544
96.0323259013868
95.9827090087635
95.9404127662824
95.9162054850504
95.8987943093556
95.8691398182494
95.8513032569432
95.80722471435
95.7944765974841
95.7897652531964
95.7921041610041
95.8204718526539
95.8216147335107
95.705997112427
95.6488858473839
95.6314919548316
95.5885496055219
95.5451150385493
95.5349637336014
95.50675063749
95.4891193162797
95.4665898806588
95.4677764633953
95.4174720165539
95.3617852767831
95.3273647270635
95.315508920066
95.312513942897
95.2973391091895
95.256203065284
95.2172927804315
95.1054911018223
95.079687305654
95.0969631328097
95.0797061233194
95.06052212838
95.068421882451
94.9964510366576
94.9287320524307
94.8630207736596
94.8155234700368
94.7827088061542
94.7702291561419
94.7288689296181
94.7060014969225
94.6676210722728
94.658776022179
94.6222834670066
94.5900304736506
94.5835534796127
94.5677149940771
94.5190036226715
94.5239543095157
94.5396818515641
94.5308257346343
94.4718379508868
94.4243871190637
94.3567988849634
94.3427382676537
94.3354121822824
94.3269249173536
94.3112369918858
94.2957602448965
94.2757479911417
94.2645001319553
94.2312207650404
94.1997491018566
94.1876137294099
94.189201383226
94.1338181759248
94.1203215799861
94.1255381938833
94.1239103303946
94.0841529082743
94.0503666334456
93.9958040454171
93.9885988170599
94.0062164725481
94.0000725830771
93.9694506208659
93.9569881797336
93.9234539851391
93.8825555184952
93.8429171599683
93.8405915096314
93.7948255111582
93.7521197258994
93.6902401863547
93.6454122104243
93.5801209302739
93.5577684427229
93.5273460179272
93.5195305789639
93.5338088770788
93.5057146940314
93.4178430355258
93.3818334114903
93.3499114959171
93.2831325057309
93.2066773348244
93.1469854246123
93.0649201041123
93.0563122528588
93.043661980497
92.9855607424415
92.8985512437004
92.8521301449197
92.827088032259
92.7928451516006
92.7181967052892
92.6637832817009
92.6289976073277
92.5923934219555
92.5282438788679
92.4942637756826
92.4553223229895
92.4306915455001
92.3850589764733
92.344762784364
92.3081313271065
92.2792669283083
92.2149557947719
92.168520673193
92.1756400494294
92.2010443715249
92.1527752480746
92.1333873876358
92.1242561097604
92.1328517712422
92.1510641964156
92.1514702206431
92.1618256348441
92.2042445831564
92.2009017288487
92.2355726613981
92.2569880358315
92.2474194408105
92.2234529237972
92.249444324256
92.3206035231
92.3620555439209
92.3149529170068
92.2933757507262
92.2958089115012
92.3224284318883
92.3396188781213
92.3699825360143
92.3771098382766
92.3674567688957
92.3518534592548
92.326617462788
92.3191333641911
92.3505292388854
92.3276939306546
92.2979928409342
92.2852523416921
92.2598099593525
92.2303440860831
92.2351622859946
92.2236324988812
92.2151168969815
92.1705812418474
92.1703502846323
92.1863461790912
92.1692386205591
92.1542588000826
92.1445785927747
92.1152702090195
92.1063880156912
92.0590702138381
92.041991074535
92.0635528341628
92.0895907971816
92.0769117613189
92.0817493881652
92.1091500294757
92.1166620552258
92.100112899966
92.0856673248735
92.0520029729187
92.080309041482
92.0889835478662
92.0421632155505
92.028689704437
92.0965876874185
92.0961427007618
92.0691679878815
92.0517696176381
92.0345064251031
92.0236864967916
92.0322566110839
92.0040014318822
92.0001932092752
92.0201489606695
92.0385521526669
92.0793679072931
92.1239541047682
92.0883496765435
92.0902273019084
92.1070195130261
92.1184118683501
92.1434588187388
92.2032344192646
92.2408688559967
92.261120965614
92.2466260993714
92.2543939584962
92.3143788454858
92.3748363833883
92.3831468405959
92.4276406925948
92.4483276305719
92.4674538483372
92.5162723809242
92.545172902444
92.5402641590965
92.5740538664279
92.619201704322
92.6599869931194
92.6377617495497
92.6626478936928
92.7009500341131
92.7316188608078
92.7538001582444
92.7803142659882
92.8154721783316
92.8624041673006
92.8724836641825
92.8885895368791
92.9217993538396
92.9838400035899
93.0024890992386
92.9973611347247
92.9986400017077
93.0020800105822
93.0140049137022
93.0687420689355
93.1072758589868
93.1545100959818
93.1562738819925
93.1632296038025
93.1980468562533
93.2406418096461
93.2608712207228
93.2877492410252
93.3119031039866
93.2937943956631
93.2641355221315
93.3078731785016
93.3649732105234
93.4066595454458
93.3896647868017
93.3675673650674
93.4162603075062
93.4966255564776
93.5232370778972
93.5248433481727
93.5135976795408
93.5637411356957
93.6035724339081
93.610119699989
93.6230888112181
93.6324460175203
93.6055211827752
93.6384689524628
93.6769546071004
93.7173209911061
93.7568940128362
93.795126132814
93.7930723112967
93.7905921339321
93.8186513293557
93.8808350843749
93.9107135346851
93.9366106264177
93.9671508259922
93.9933822003436
93.980897075483
93.9885223893987
94.0128889498252
94.0110007445902
94.0008490525958
94.0310649714795
94.0557171518629
94.0855255395447
94.0932060508152
94.1178191948787
94.1457372765825
94.1661095174512
94.1952891280485
94.2385679362887
94.2445525190687
94.2653070606742
94.2803201457161
94.2921051878658
94.3055674594918
94.3126022863303
94.3063309258767
94.341770355214
94.3534589320991
94.352678797163
94.3512109189103
94.3906640284116
94.4210083385955
94.4311411184269
94.4485863504855
94.4966089958562
94.5202472116847
94.5379220422366
94.553763955144
94.5763560388742
94.6047653972165
94.6034823445085
94.5824780678929
94.6218559593553
94.6443229888038
94.643930210856
94.6572611408771
94.689169704272
94.6975862093744
94.7153751935129
94.7395185784497
94.760630951105
94.7371245455976
94.735065594842
94.7673551732437
94.8241811988948
94.836348309608
94.8371285352591
94.865441044153
94.8949011247702
94.8940072708211
94.9110043575412
94.899198999121
94.9138726426201
94.9318655082499
94.9448628142781
94.9482505451795
94.9711743295852
94.9963090922438
95.0393058069653
95.0514084596607
95.0524045623758
95.0602034948759
95.0700657566906
95.0794545879452
95.1079914910249
95.1221428882997
95.1520375241497
95.1715015525967
95.1723620563706
95.1787144507606
95.2036470498151
95.1973255294346
95.2150772684539
95.2383860693585
95.2354087879418
95.2091627612739
95.2073401096093
95.2279737945128
95.2790596744668
95.3083830082368
95.3274169292973
95.3301627222931
95.3263195084903
95.3478320812309
95.384456166851
95.3754132964254
95.3927685151963
95.4104340868652
95.4124047563122
95.4095513331578
95.4264919847687
95.4528011914583
95.4951975522266
95.4888676708792
95.4688406127512
95.4875858938647
95.5097597937373
95.5169111252963
95.5634055272047
95.5765233357284
95.5845552494155
95.6032997365115
95.6459315675888
95.6706384927499
95.6608331846062
95.6382278717673
95.6556572513589
95.6709872761771
95.6873536723306
95.7233222481276
95.7541876421969
95.745840601223
95.7395872409703
95.737309094276
95.7403653474308
95.7357222090127
95.7492514105474
95.7787026937655
95.8288551125778
95.8444318274146
95.850013898378
95.8706604948313
95.8752239850055
95.8697007813497
95.8951097310053
95.8833046196716
95.8924497080098
95.9099300162067
95.9100776452898
95.9055817934995
95.9220504807013
95.9399706993986
95.9452767917452
95.9158438965684
95.9362372635175
95.9910584593212
96.0137587505394
96.0203695484909
96.0551095602434
96.0388125623715
96.0215569062263
96.026294212766
96.0515201672434
96.0746209257023
96.0770161251326
96.053778334317
96.0731342795552
96.0992983538933
96.1174496909019
96.1543845792279
96.1785946315618
96.1712000006584
96.1625856916069
96.1589407039222
96.1848588215584
96.2093491890107
96.2192612857544
96.213216748265
96.2152742201903
96.2131797301811
96.2302437530079
96.2468870366497
96.2516066627339
96.2391604256726
96.2548499290799
96.2598657227905
96.2833637592467
96.2970336182397
96.3043416416241
96.3249496477539
96.337513266944
96.3329351173756
96.3359087234335
96.3639950780045
96.3792846263765
96.3527788705413
96.3726626464317
96.3912278431388
96.4103203161136
96.4394487618341
96.4441945980084
96.4360898358485
96.4419586102074
96.4422920872725
96.4689864154074
96.48064917107
96.4526240270314
96.4449476951891
96.4784479328125
96.4707743115258
96.4652327944754
96.4869369412154
96.5569007882519
96.5823919414684
96.5628852041126
96.5683223008595
96.592408669564
96.5934215936622
96.5978745107954
96.590121750445
96.5814455165471
96.5649408874583
96.5726243196789
96.6017937693443
96.6234736829554
96.5970221647422
96.5835786925517
96.6032002023725
96.6205745926556
96.6524939076082
96.681099295551
96.6590774802388
96.646040537057
96.6531253179119
96.6629927958056
96.6736720958104
96.6790781792029
96.6610408735151
96.6627002251517
96.676299937833
96.6787534668195
96.6615920819595
96.6689819580969
96.6806455618698
96.6647807685921
96.6461880248248
96.6478417182279
96.6302553261467
96.6181109157818
96.6141888621191
96.6083137581212
96.5783454095912
96.5448551196749
96.5225486099704
96.5220336843304
96.5112592458588
96.4922380094537
96.4751791225825
96.4820636493465
96.467840946547
96.4921105560366
96.5237921908175
96.4908496789406
96.4708459473719
96.4739256505599
96.448735096485
96.4344478870619
96.4287153384565
96.4429721137939
96.441112152602
96.4191625471961
96.3865323326727
96.3685663142227
96.3603765755888
96.3553272291691
96.3120680151221
96.2444770406783
96.1919483442138
96.1931358419587
96.187476834919
96.1701805110931
96.1639839445064
96.1337175416228
96.1016000607441
96.1051151751247
96.0788492845791
96.0753094750506
96.1046006417552
96.1033574332712
96.0973622329156
96.107468361012
96.0999946548063
96.102005488589
96.0894057745309
96.0714569142802
96.0699957778179
96.0858629314543
96.0649616369733
96.0438133065375
96.0259132009696
96.0090150095985
95.9963948769181
95.9757928257618
95.961915166202
95.9581269757665
95.9258885513284
95.8916630465258
95.8633343216522
95.8252479728181
95.7665695724751
95.7112483174753
95.6554716999439
95.6462802601871
95.6287783537633
95.5654169138813
95.4834011453087
95.4142840764688
95.3594951194964
95.3320987191992
95.3017661196584
95.2641571831873
95.2310651226913
95.1908022411641
95.1351647316748
95.0793442658562
95.0511656672937
95.0403042871896
95.0085267677858
94.9741115720786
94.9351314742209
94.9204506441076
94.910394728297
94.915098468817
94.9175841501509
94.89888940862
94.8757204443993
94.8829855450983
94.88669338295
94.8905565046057
94.9071343513909
94.9255999592467
94.9295303212114
94.9413560225361
94.9518933338027
94.9619253423424
94.9805493011666
95.026905263844
95.0253120471684
95.0084249124022
95.0049401917341
95.0061791928603
95.0137055855057
95.0282732188304
95.0393052199428
95.0694452621326
95.0866619037331
95.0819931317975
95.0910441824389
95.0882784280226
95.0654506346644
95.0841984914507
95.1151734942018
95.116631664834
95.0935305760252
95.0868134517346
95.0964348769046
95.1093249252774
95.1143637133785
95.1498891645389
95.1647714673848
95.1733906793028
95.1838672547608
95.1905185765314
95.1986088712113
95.2249259760641
95.2491496433749
95.2728976493551
95.2857801260466
95.2795481379294
95.2648864844657
95.2773587244075
95.3006021339466
95.3375990058643
95.3600641066288
95.3800180869282
95.3857804229385
95.4037483543138
95.4154902807317
95.4096647485893
95.4048171736044
95.4375180700236
95.4837523799586
95.5152290119627
95.5412143281035
95.5786110241806
95.5975865095733
95.6064635010605
95.6335619445094
95.6577317850727
95.6727678799261
95.6895972038552
95.7107719111561
95.7373632316526
95.7465700329735
95.7590957044051
95.7624624637779
95.7758009351654
95.7759264723616
95.7916521070725
95.8136991865619
95.8537637701584
95.8779788794119
95.8911646606609
95.8931124044782
95.8821709313865
95.9028510202434
95.9207559300004
95.9192872791204
95.9275664905158
95.9445231825383
95.9836676926859
96.0097425594493
96.0013723218306
95.9967212329442
96.0283995356761
96.0441130556644
96.0521487111233
96.0625310244284
96.0716927645356
96.0791066248898
96.0728463149555
96.0696326675747
96.0975785998161
96.1300545486934
96.1399407114438
96.1370349570334
96.1318527139253
96.1227170942185
96.1312995988441
96.1401977303138
96.1548675789564
96.1695379158386
96.1824514855109
96.1957190334775
96.1917721388441
96.1809706363388
96.2097814167486
96.2316213233032
96.234933141511
96.2401871613388
96.2333887682992
96.2281912984515
96.2358636603373
96.2420718287453
96.2540301450124
96.2661501848424
96.261667385861
96.2385157397254
96.2401349158214
96.2665262916859
96.2851411582696
96.2818088159023
96.2808548896454
96.2882008505032
96.3064809724973
96.2989267490677
96.2992754486308
96.3075190376876
96.3063904474813
96.3049081585705
96.2964843122507
96.3076799816556
96.3224300149734
96.310328874689
96.3114025523942
96.3227115695702
96.3337982659012
96.3518285827652
96.3591631131701
96.3455143011037
96.3522789905142
96.3498008756344
96.3379848570932
96.3383258488106
96.3537650277668
96.3540899077502
96.3362481808253
96.3356474857743
96.3386258104503
96.346331685499
96.375245435374
96.3814747500142
96.3714151042781
96.363305078862
96.3628765273716
96.3775285080091
96.3843177498198
96.3791992207204
96.3794515317754
96.3778411393036
96.3820560052677
96.3696399544225
96.3523608383382
96.354630688073
96.3668009680722
96.3847873533959
96.3934407840191
96.3762035178092
96.3658468990898
96.3745473507674
96.3895189504453
96.3872041663469
96.3805925518596
96.365040877466
96.3651780775346
96.3806106136794
96.4002811006987
96.3948473215655
96.3913982399909
96.4019919601406
96.4072004160262
96.4063660593567
96.4206398810014
96.415471286288
96.4121417313229
96.4091922447153
96.4167623432644
96.4336860458268
96.4383749119969
96.4325382159793
96.4298151149702
96.4359854834781
96.4468766653832
96.4417142744533
96.4155760938164
96.4060510260495
96.4178668937493
96.4326425575664
96.4331329273307
96.4378409475694
96.4507007880023
96.4578220370226
96.4777608222167
96.47588719633
96.4562916064392
96.4551561323024
96.4566816034573
96.4694460539507
96.4833859071495
96.4666190953917
96.4649596836795
96.4922305525257
96.5194808867599
96.5074221600666
96.5110696883705
96.5375476957194
96.5445514135972
96.5291624301231
96.5346080328706
96.5358684798357
96.5214314205625
96.5098403348385
96.5219915108466
96.542285605883
96.5406887236985
96.5343792163479
96.5538887225886
96.5858605571907
96.5882399724926
96.5499593272166
96.5341665520744
96.5587710590535
96.592996415366
96.605700522942
96.5886188005673
96.5676893897759
96.5877575433579
96.5881080234136
96.5795321252645
96.5909622090434
96.5858794708528
96.5768438279191
96.5909987049765
96.6001163459387
96.5854277393563
96.5555946801707
96.5538622100236
96.5543375664013
96.5776903503165
96.5944329224602
96.5947571899568
96.590810522702
96.5913741523262
96.5809813959277
96.5793576305072
96.5944817818599
96.6041570256938
96.5942313791229
96.6067292580683
96.6215720440681
96.6144896535151
96.6086400303662
96.6159290253895
96.6246025470008
96.6306633218378
96.6194037625304
96.6018322778504
96.6109937589117
96.632409439928
96.6448580094392
96.6742231250867
96.6917813316474
96.6909743401949
96.67785316375
96.6795855449571
96.7006778766053
96.7202384467881
96.7110665112666
96.7105408583162
96.7125676988764
96.7032715644148
96.7179747268319
96.7270336722916
96.7174592690082
96.7482090753234
96.7720695328561
96.7840085506771
96.7728363766251
96.761205744503
96.7480621930548
96.7584589730213
96.7625835583525
96.7780421046269
96.7920323408647
96.7854747690292
96.7717881290537
96.7686016833214
96.8002237898749
96.7962454713425
96.7702310237082
96.8023660219083
96.844998616409
96.8348323781087
96.8248169424313
96.8575015508849
96.8667591826709
96.8660377740789
96.8773682118532
96.8697747430869
96.8365128729317
96.8614439751316
96.8787266337825
96.8740618447253
96.8837804742062
96.8910396177381
96.8953949216745
96.9055276543966
96.9165558962979
96.9396574275971
96.9416889518234
96.9176472829686
96.9389830321517
96.9638046609087
96.957135951113
96.9665610121532
96.9652793630679
96.9506566292386
96.9624688819358
96.9663003270181
96.9298571484345
96.9708952633077
97.0038715312362
96.9449414420322
96.9254212795069
96.9857286781811
97.0388784587408
97.0112002044084
96.9961874940456
97.0150638975923
97.0429942531225
97.0281782553933
96.9839370271684
96.9855858441801
97.0237782804768
97.0703001516732
97.0652107550471
97.027265932323
97.0048578725421
97.0100356238514
97.0271146947559
97.0486352789803
97.0867325823509
97.0767256675506
97.056329785522
97.0792568403294
97.0759352611345
97.0560254474785
97.0288755400408
97.0260478426878
97.0390904654158
97.0105570882347
96.9924727036626
97.0036288590545
97.0243816806083
97.0514778548001
97.0650587713055
97.061210291163
97.0807751830737
97.0883338834416
97.0777646384023
97.0778993017466
97.0750760272885
97.0696604522368
97.0943530389936
97.0913928366773
97.082588885928
97.0750737362484
97.0440852051538
97.0576500066759
97.1141916147738
97.1170222567742
97.0964672024376
97.0920049730296
97.0757294056733
97.0853060941299
97.1009868372108
97.1149021540458
97.1121654862877
97.0909150291146
97.0486520555508
97.0982855920999
97.1299836317168
97.1065667919611
97.0764522412619
97.059041816527
97.0641502806996
97.1002053889606
97.0753553771829
97.0549316703065
97.0871388771502
97.1437108152789
97.14690799803
97.1150628650948
97.0882566130881
97.088791278025
97.1297587743423
97.1645910749579
97.1514644041309
97.1359958747471
97.1161253394379
97.0945036618745
97.1034322005361
97.0946548947991
97.0891200420251
97.1309082231503
97.1622180156679
97.1601326021953
97.1506460464631
97.1371271845218
97.1393508626489
97.1366758765214
97.1362772358302
97.1211942294048
97.0956769213865
97.1366158162942
97.1780403386616
97.1551920683828
97.1216125678984
97.1582331408994
97.1725841960334
97.1298705579249
97.1070018818642
97.115531394615
97.1313872505918
97.1446291688189
97.1386839138786
97.1416325318022
97.1762900556609
97.1925553007195
97.215981064898
97.1922646515269
97.1521124463965
97.1547990109432
97.2079427159312
97.1988002863517
97.1533088210824
97.140119441104
97.1668963874052
97.184913149801
97.1777582554286
97.183243494051
97.1745854911946
97.1650035806132
97.1781557640712
97.1818968256855
97.1548601375373
97.1806623608996
97.2262791676868
97.1866500012354
97.1551075228599
97.1723441928276
97.189069467418
97.2071537883962
97.2062807386472
97.1778516457654
97.1644634788759
97.1897900204235
97.1938512900508
97.169825644972
97.178802229652
97.1784969515525
97.1781458773194
97.1780824304339
97.1960416098261
97.2374621616004
97.219075232564
97.1982709143534
97.1910484914149
97.2061100812388
97.234251219885
97.2388255916861
97.2233012634193
97.1974092073467
97.1834425398554
97.1744325953738
97.2090151263641
97.2232673061281
97.2147739028866
97.2316049791188
97.2572482811262
97.2838040307297
97.3117980899612
97.3148070975811
97.3087020121434
97.2888868332721
97.2789850512649
97.2799874246855
97.2533905882964
97.2426590005882
97.2497922586265
97.2176744148283
97.1900828245783
97.2095765692055
97.2670343354824
97.2700263988026
97.2503310098051
97.2497703924828
97.2519750243139
97.2564789852149
97.2329200730355
97.2321741358111
97.2468483345259
97.2409740077632
97.261950733317
97.2720089473927
97.2675629720156
97.2573677307167
97.2314447173051
97.2403802137526
97.269805230063
97.2668153821966
97.2870359979731
97.2785027125721
97.2499961856195
97.2472970669094
97.2683619520824
97.2547243753144
97.2327835781344
97.2220882906489
97.2227093299464
97.2142369692811
97.2327492260835
97.2416969455025
97.2278315974414
97.2515402529507
97.2666681787919
97.2339867761843
97.2487212662653
97.2392990217789
97.2253882700508
97.2382377213791
97.2342396427561
97.2392355727988
97.2452798501866
97.2359993685202
97.2322094484846
97.216477959288
97.2181149203596
97.2001779517281
97.1705634003346
97.1745959431366
97.2170613462212
97.2061949396665
97.1601783670535
97.1210161356992
97.1259073667548
97.1523102793626
97.2171575759219
97.3011137926277
97.304203686861
97.2391433201054
97.2085825232446
97.260795627605
97.337502169777
97.2792239443767
97.2152858742356
97.3152681932132
97.3170576974585
97.1766756688418
97.1912327892608
97.2119126773072
97.2458682389305
97.276203082283
97.2182171013213
97.1786147841282
97.1703802708197
97.2110965539597
97.2445622525186
97.1896056408594
97.2405931530431
97.3156869549583
97.2732011704117
97.2192117423917
97.2417812247483
97.2024443561717
97.1966772132202
97.2005899576598
97.1868133772865
97.1197125834824
97.1701647188521
97.1685331316344
97.1658395262515
97.1255904951806
97.1847819273915
97.2042181158109
97.2882549636269
97.2554207574414
97.2306114760375
97.1269638180935
97.1699081767329
97.1262363090062
97.2230311062947
97.1895255773221
97.2091768472193
97.0969209987837
97.1822779575057
97.1435347271576
97.1445934961738
96.9969583316948
97.1096256968968
97.0912707944008
97.0952460894746
97.0339479715108
97.1499864209451
97.1379597618508
97.1033512119302
97.1569798779031
97.1586832749044
97.1637686743039
97.1602824273997
97.2353070352962
97.1607411939183
97.1996515996313
97.1764900446781
97.2162136397931
97.2132371946201
97.2016999287726
97.2232439795868
97.2497084892661
97.2777256887638
97.2861677933233
97.2814153595263
97.2941193509396
97.3037701317121
97.2891902974776
97.2951247334069
97.3207333886659
97.2937555292987
97.3040502175898
97.3117399895413
97.3562992025685
97.3273700018091
97.2919391314257
97.3286306961863
97.3491609719354
97.3212495506486
97.3462487210801
97.334380547036
97.3511948187272
97.3673878859222
97.3822766619909
97.4170710727526
97.4279945052007
97.4426683757897
97.4704031100995
97.4774568401269
97.4988398390272
97.5173005103476
97.5115156609936
97.5108761640893
97.5978613443613
97.632794022715
97.6014986241748
97.5750750045219
97.5674940139285
97.6203219925078
97.6377527074334
97.6303353027111
97.6553352877875
97.6470018705178
97.6769240115675
97.7144041532649
97.7357754351043
97.7169597899196
97.6777234409182
97.6297825354907
97.7186359719708
97.7564269914829
97.7309757749287
97.7633438755248
97.7897161931451
97.7669001842191
97.7667982483625
97.7264262977399
97.7430067324915
97.8036743389606
97.8760827925386
97.8551320935069
97.8031462542487
97.8596751490184
97.9051525598557
97.9234322613936
97.8846502556167
97.7851018112957
97.7834883976684
97.8237449126984
97.8338275868833
97.8090841991526
97.8168700053894
97.8350090971076
97.8714059249822
97.9200899283056
97.9924069047412
97.9761579065985
97.9792451063448
98.0038224014337
97.9903472789759
97.9614484291163
97.9844422753985
98.0264069233349
98.0672644412431
98.0104590929265
97.9519259477887
97.8978592373401
97.9031031621329
98.0025707224067
98.0858522597118
98.0373007271793
97.9496312314533
97.886908425973
97.9132880511393
98.0450998518204
98.1438272831301
98.0800259227563
97.9859389039063
98.0905791757434
98.0857444515571
97.9659125672881
98.0117111680792
98.0411014245143
98.0290253379322
98.0631010838257
98.0977055281742
98.1373914332989
98.2010435432824
98.1770113018054
98.0883020276625
98.1059690903635
98.1946463122884
98.2380900300261
98.2079002197717
98.0508540437174
97.9132820924199
97.9780664141288
98.1538553958345
98.2707709920517
98.2956304404998
98.2533092013577
98.2230690907755
98.2782695918685
98.3037467624586
98.2569945674875
98.2489635349823
98.3903160482521
98.4469653891422
98.4026210114304
98.3533157250512
98.3128248371841
98.2910531623707
98.434781152858
98.5075020668753
98.4601175404352
98.4039828453153
98.433880375061
98.5055831685205
98.5256912591068
98.580973999894
98.6182762585421
98.5528265697058
98.5077080056875
98.5094935239776
98.4927533733398
98.523227023134
98.5623739204694
98.5637469145057
98.5864541242263
98.7030552052495
98.7050873712459
98.6096946404002
98.6514172993132
98.5858768462048
98.5660108602513
98.7004596403116
98.9225361011464
99.0819666849917
99.0723354325523
98.9412489613689
98.8981267270588
98.8909301997239
98.8303971801724
98.8238794573626
98.6940168185665
98.4470653383075
98.3292101653221
98.3268004915207
98.4086880868533
98.3840013777571
98.3013640352681
98.3523428500117
98.3658632545404
98.2001018841629
98.0874948193751
98.2224467062615
98.3418227919501
98.1969254936899
98.0440458966157
98.1320895242632
98.1237777979559
97.9944274385707
97.9819628305669
97.9707674090046
97.9502682805012
97.9714978072892
97.9556359711004
97.8809419201804
97.7994933097531
97.7814162408703
97.7277698400386
97.6864347878391
97.7176558542143
97.7044632809652
97.6339041290656
97.5955834814842
97.6204251809207
97.610882553308
97.6310331488374
97.6238397435769
97.5619898776021
97.5742022299904
97.5280573051075
97.4814152102237
97.5286285715379
97.5273810990918
97.5240962906323
97.5259238702392
97.545459094877
97.495148846732
97.4378677937451
97.4698226677947
97.4938382067115
97.5201460010193
97.5522398440117
97.5489385472815
97.4776281585472
97.5156787555683
97.5582112962209
97.5328970186334
97.5314254190121
97.5415836017432
97.5432098908847
97.5343265827387
97.5667186661767
97.5719148365926
97.5419121043735
97.4810967431902
97.4814416322783
97.5409819945734
97.5389243581335
97.5965937927833
97.6079060371712
97.5398984785955
97.5040463857949
97.5298731319383
97.5767106025408
97.6260040653945
97.5974885289677
97.5691859876705
97.5784993309119
97.5653653813719
97.5836301948742
97.6246300109138
97.6694978092479
97.6202497989946
97.6053879670658
97.637537861232
97.6698406186282
97.7141876767939
97.7778325374843
97.7589241928796
97.6730380482623
97.6984325003338
97.7366243491443
97.6392054624674
97.6020495389927
97.6978873935198
97.7707883897938
97.7230370515349
97.6874007207078
97.7697456069123
97.7747880469486
97.6306381460242
97.5879871008186
97.6209297576943
97.6874960638063
97.7115237185084
97.7742286640178
97.7781491310136
97.758834526953
97.7264756172204
97.7037919836026
97.9021304720526
98.0474578372362
97.9694707441021
97.9307565316611
97.9760702379668
98.0240325395573
97.972715431135
97.86190540429
97.9109595143419
98.0477760686306
98.1642010463317
98.1046300124092
98.1062948542156
98.1806665275598
98.1170411091343
98.0296681442251
98.1445216241787
98.2016445685433
98.1481243211915
98.1251252191001
98.2236243379561
98.3509678375032
98.3464637726278
98.2941614588236
98.2547221472737
98.2622883834034
98.2943426232594
98.274168755773
98.2510833232367
98.2426495302254
98.2359913824012
98.2103493818649
98.1934922096228
98.1934566065601
98.1093102446789
98.0731004877084
98.0373718984064
98.0777656607172
98.0827495995828
98.1525023058212
98.2981560329536
98.3216186563624
98.1231246820538
98.0940119814872
98.0939868970636
98.180644197363
98.1952377413594
98.1898137307793
98.2374381841268
98.2067475374307
98.1243545458256
97.99229581875
97.8955416971257
97.9278732098264
97.9107457579366
97.8772992794789
97.9534269047473
98.0174345751401
98.1319464770076
98.1950278587532
98.131915092331
98.1214232263114
97.9186333979753
97.7237244831263
97.8664729300558
97.9495292814363
97.8600275527119
97.8697349071758
97.8479755193143
97.8855771376563
97.9937745451166
98.0044776539554
97.9986845409334
98.0317171778853
98.2062217008913
98.2361602625338
98.1001350104475
98.2254998053947
98.2861194737152
98.2253540973974
98.1753883294398
98.1560325754327
98.1265434828196
98.1151854018573
98.1877136381448
98.2658772475679
98.2167384165066
98.230200429927
98.3056724252902
98.2163518244132
98.1091548391953
97.9348949820322
97.9119687301772
97.9898374182322
98.0779558799533
98.0457512967149
97.9208881333623
97.9337695565214
97.9982565839284
97.9288699928162
97.8444491939786
97.8208332550852
97.8764027700104
97.850770504357
97.7465282153909
97.7938178324311
97.8401789442005
97.8577971506002
97.833427793765
97.7780122903016
97.8242918188072
97.8685391414413
97.8346594200723
97.8012804013089
97.8404116544225
97.7767414232527
97.5773877621728
97.5699934924857
97.7010239983224
97.783392143556
97.7590040351835
97.7124213806123
97.6929208498371
97.624211595914
97.6083396613882
97.6224527521589
97.6122807049828
97.6127865943184
97.6211773198943
97.6472946057373
97.6471750806277
97.6129389618658
97.6057909759658
97.6116051554553
97.6014203012373
97.6324011187023
97.5671155187081
97.4413377142563
97.4704602850358
97.5516275712838
97.6262310314505
97.6363560401022
97.5132165660768
97.4235640307511
97.4479086018736
97.5690890042909
97.5650168221615
97.5897244877322
97.6094092214959
97.6278837867993
97.5872454330388
97.5137296728712
97.4340446984642
97.4087853316427
97.4548339566539
97.5403404810883
97.5329571404113
97.48716400051
97.4848869249374
97.4761606132165
97.5135240117292
97.5485826682649
97.5720845158704
97.6035751269409
97.5662947246373
97.5519157381724
97.4908148306233
97.4473617401278
97.4754057853091
97.5505079655212
97.5226163986134
97.5254451603246
97.4324471195467
97.2745908858724
97.331662652134
97.4718862137944
97.52447380026
97.5047300780042
97.4892970622819
97.4703806296484
97.4552477029219
97.4717268221944
97.4986644912038
97.4929547124714
97.4627949413453
97.4611660400455
97.4855397393863
97.4853078080731
97.4537166846745
97.4311943890149
97.4737279181556
97.4780065337396
97.4467619341534
97.5249996460159
97.4105676950759
97.2202158541463
97.1562718215359
97.220577892158
97.2893010244816
97.3757285082366
97.404525047513
97.4251686830715
97.4169004784723
97.381339235467
97.4096485634017
97.461668564589
97.4321714016897
97.4568361018701
97.4483640581093
97.4335597300982
97.440033930441
97.4502294602714
97.4367387453193
97.4059659506954
97.4081201424786
97.449241313142
97.4782115836423
97.3777585457639
97.3067672829339
97.3589915456216
97.4366919886151
97.1398788754585
97.056619662912
97.1701011087512
97.2749358425938
97.3500632139752
97.3853676238963
97.4465528133724
97.4594146673403
97.3963669665038
97.3837416469032
97.3856043935176
97.3906477889704
97.3335546354532
97.3516745321681
97.458797903359
97.3608804872625
97.1447693841952
97.114410930218
97.2149840989455
97.4457302282925
97.367712653899
97.1293596185843
97.1750054680548
97.2820940670041
97.3466113787115
97.3406002853033
97.3544999618592
97.3661341261444
97.3441506611752
97.2952035601837
97.3496199331951
97.3619562816792
97.3639423043042
97.3591240035158
97.3444567564129
97.3509843217852
97.2506949022084
97.2037048692336
97.2643217090686
97.2562218238431
97.2740764731243
97.3073240419721
97.294762905606
97.2891038372404
97.3467731618764
97.3158796931223
97.2307436672211
97.1890298784328
97.0814126260252
97.0939059842486
97.2207996893008
97.2473648361765
97.1610732953579
97.1825693395621
97.3776349044039
97.251715736679
97.0753191690298
96.9745943583885
96.9790128136731
97.1282956117138
97.2160563145451
97.2896396691285
97.3375101948114
97.3485085971715
97.1598786353888
97.1352462120982
97.1838620166732
97.3179554070393
97.2304569471577
97.1518024633944
97.1402972407231
97.1795301353332
97.2402576686782
97.2822420118708
97.1358147916167
97.2346468157644
97.2937134747575
97.0616774755408
96.8458614786532
96.7406764161083
97.0331936395167
97.2150770037968
97.071474549538
97.0683942806115
97.1249133292151
97.2392571445627
97.251975939816
97.349437104352
97.2180561826043
96.9226530821783
97.0105702932849
97.1250533149624
97.2128134188444
97.2777872119662
97.0983424654396
97.069357091786
97.1411814725762
97.2032269440672
97.2946747918363
97.2995719916632
96.8529462704214
96.8805443116726
96.9194731739186
96.899972012897
96.8907349447616
96.9739081393843
97.0967523170846
97.1726131214074
97.1180012511614
96.9801107190521
97.0243846762396
97.2241883282871
97.0869137708016
96.9452839476657
97.0430569560433
97.0778396580723
97.2486694534641
97.3290383190704
97.0006241871705
96.4984712192582
96.5625238730204
96.9358420461313
97.0948987278353
96.9526516270963
97.0087470589865
97.1136053416868
97.1856166964714
97.1748521951506
97.173291984544
97.1654128141048
97.0931550392483
97.1156094482726
97.1124372906422
97.1788764965617
97.2083986132189
97.05695365836
96.6375795080855
96.5294460874421
96.8022670710995
96.7244790353395
96.7430139422764
96.8739607024632
97.0755353107132
97.1554410777911
97.092420199671
97.052092556062
97.1306609997916
97.1839502421527
96.9545047573152
96.8666481014723
96.8263837480485
96.7972885056742
96.9429525902388
97.1584182405387
97.1617782915412
96.2936522794893
96.329201349131
96.6322134605467
97.0303037829375
96.9087476436375
96.3601147573576
96.6030848444403
96.9331771973321
97.0302435351182
97.0958434403547
97.0743427456126
96.9919366326793
96.8818663161116
96.7682856062991
96.8485514626229
97.0383041177689
96.8611884685411
96.2321367879419
95.8598017337699
96.2955449762352
96.7208121939414
96.7398356472592
96.6839739135566
96.7724312392347
96.8011643478577
96.9960219542528
96.8581931568091
96.3940969971231
96.4599448599294
96.6974035545658
96.7301073183327
96.5464174000423
96.7059726836356
96.3691344282123
96.2180194050966
96.3932750372614
96.6154424331521
96.6498018475543
96.7073703170859
96.7465543472895
96.4293439331713
96.2868233968163
96.3839130310771
96.481589309254
96.5440821586236
96.5614095141037
96.5153631942184
96.4863336245375
96.4831842404413
96.270762286212
95.9567173006192
95.1381028924403
95.4584380229924
96.0371640276303
96.3974604117916
96.4738447434274
96.1962526720659
96.0500901888745
95.7054726442777
95.7459644860187
96.1065087417354
96.2667640546797
96.3167896150771
96.3240367225081
96.3131621903134
96.2786652694222
96.3197453322214
96.0939041893589
96.1500607545088
95.8708403262023
95.3880391094152
95.7331186738209
96.1241779742612
96.3063170830219
96.350343321531
96.340998819142
96.3730070691182
96.2220924073675
95.9978583077368
96.1300921812369
96.2698141485274
96.4285777220875
96.1898688618521
96.0054613530873
96.1548061085967
96.2997642217131
96.4083903729985
96.4138828224957
96.5553471862551
96.3652506848087
95.903027737202
96.1167481262023
96.3336832765345
96.5022147453783
96.5690973432144
96.5825286808745
96.6167105989908
96.5568311421132
96.5040737413432
96.5454353551051
96.5100030237774
96.5733595558807
96.6301435094694
96.6906661991877
96.648242164924
96.6525927274748
96.65026236976
96.6708902116531
96.7004195201782
96.735854774095
96.7714522474824
96.7615658020173
96.7578668698161
96.7310727683874
96.7157290832925
96.7946118543418
96.8222917481363
96.8459690987192
96.8499009700282
96.8581660044388
96.8620381668311
96.870295611108
96.8909897154274
96.9025138802018
96.9153950717907
96.9413019263907
96.9437454429153
96.937793826105
96.9454059223657
96.9562867825488
96.9485560740564
96.9521064342434
97.0043202591681
96.5843445394045
96.4205215580933
96.7275973173194
96.9205420784138
97.0134354042538
97.0684175446706
97.1444251542403
96.7610191159224
96.539359988825
96.7597501251924
96.9629204370567
97.0934012648471
96.9825442267911
96.9016896982082
97.0059029641721
97.0336831233094
97.2131122217644
96.9590365065173
96.5119601546116
96.1460089427356
95.7572850808226
96.3543284917058
97.0346579811956
97.1000837195581
96.714522725381
96.8776904683512
97.0276545179121
97.1804925939511
96.9140984533991
96.7746197167207
96.9743397193776
97.0906286903323
97.2232880810508
97.0677850367898
96.7692755392804
96.8475907074581
96.7760742200306
96.5541091706049
96.6857488213947
96.5622426868614
96.103014832523
96.349254903276
96.9357828160634
97.1032304239543
97.2175342186916
97.1841951764776
96.7347807047337
96.748043824332
96.8481015945759
97.0477065439931
97.2310658917545
97.1854991919715
96.9993933832031
96.9919808743901
97.0468158290167
96.7117859897952
96.9384246087965
97.0673339659155
96.9887369228429
96.6670285092239
96.3577293451429
96.6793031402266
97.1529541422708
97.0865980007359
96.7122889282809
96.7735774876647
96.8113077585752
97.1198698822865
97.249939429048
96.9666194496583
97.0625927703075
97.0680730758466
96.9844460287692
96.9081597825792
96.6123122236144
96.2885772887114
96.1456965236269
96.641728427358
97.112085241192
97.2594604921449
97.2493857393154
97.2150365555313
97.3575187329229
97.0987704979657
96.9750281862351
97.1707454670617
96.8561780422693
96.8998258954255
97.1404339650462
97.2262246830254
97.3016606936992
97.2968659848605
97.0788823493543
96.7315145058764
96.8140300974278
96.9454134602959
96.7773997514557
96.8574113012768
96.9429595316183
96.9820529883692
96.9175982076303
96.8796912884148
96.7040224416798
96.6411043470025
96.6854293325041
96.6837019616699
96.752818852121
96.6256106758756
96.3334517638547
96.5828837596111
96.451566801525
96.3373397268589
96.0631562059435
96.0703706978842
96.3715888485339
96.4839510781955
96.5236300435842
96.4496323535569
96.4763511285212
96.3779136918409
95.937697971459
95.9885552489053
96.0626019444588
96.0803645732511
96.0205048618556
95.9609740447439
95.6779102576861
95.5238705171817
95.1951257605242
94.9175686513932
95.1687561669405
95.3115085263833
95.5184033981162
95.4944365686452
95.4394141672036
95.4350976315919
95.4735032488686
95.4621562567084
95.1692519870739
95.2074261521786
95.3298499174785
95.3683877754288
95.4138191054511
95.4228238312584
95.397848356357
95.3632365311932
95.3537566430751
95.312982408928
95.314822299364
95.305705358048
94.7501159334037
94.6483211895898
94.8447326914841
94.8360327648226
94.7421543836398
94.652972705943
94.6189617419179
94.3512311196874
94.2017823423597
94.275297828327
94.2896219010678
94.3141795019067
94.3365419925048
94.3120601168644
94.1125712132251
94.252871398117
94.3645976732103
94.5645369908277
94.4435166884652
94.1010190224075
94.4163046794972
94.6064731333304
94.9079072256903
95.0907151450662
95.214059605862
95.2790335704517
95.3211748568869
95.3232285948381
95.3851403408264
95.4188810699106
95.465791471321
95.4969800471015
95.5305427024761
95.5732540960739
95.3641192298554
95.3587759488088
95.5393012410143
95.6303991366874
95.6665656036744
95.7248208303376
95.5921321823104
95.42133994133
95.5453981322286
95.6772551551337
95.6744302645127
95.48359343298
95.5203244342929
95.7482812215764
95.8364674276948
95.8725391026965
95.8630422665211
95.8800881624895
95.8419097195534
95.5372633011352
95.5288835354388
95.6322160354179
95.6806216341971
95.636197726499
95.5821739529899
95.4869758832699
95.3996996114723
95.2732009733695
95.1615531549811
94.9950399220965
94.8841628892314
94.7892335027641
94.5935174908362
94.3381804796517
94.1531470980621
94.1128305452222
94.0394822310118
93.9672030061732
93.9296779093712
93.805611738765
93.7954652672226
93.8619513709688
93.9031408425152
93.9092410128428
93.9290113393782
93.6353422627159
93.5722487714221
93.6145113207787
93.6103448242742
93.7094326964891
93.7445545714141
93.7516794796832
93.7459289598472
93.7508735132465
93.7253218535893
93.7714538259599
93.8326639410257
93.9024829380301
93.9827843865181
94.0306037042846
94.0521817010043
94.1023060423691
94.1307030302931
94.1183558310481
94.1023766786721
94.0265976016093
93.9251957933571
93.7971557972912
93.6814078188379
93.4684890320954
93.2107390026954
93.0377789232301
92.9956684374623
93.0032323898254
92.8922772460429
92.8766285214749
92.835128725424
92.8166238832094
92.8115733147624
92.8672093257462
92.9285161612648
93.0112733396718
93.1052713418092
93.1896650879671
93.2315638211967
93.2626775511618
93.2639943295057
93.2387371518763
93.1694169066275
93.101531138545
92.9992423904463
92.855128284419
92.6380772529104
92.4534380804513
92.3221502185673
92.1415989140214
92.0399092406816
91.9441972562324
91.8702678963095
91.8274976272932
91.8600037593284
91.9668720411006
92.0749059786476
92.1884311758055
92.3026694823017
92.4560140705133
92.6222683401902
92.7862830652647
92.9533560817085
93.1191240513037
93.2719726968324
93.419415489999
93.5716078426649
93.724592350601
93.8540697369465
93.9578746919907
94.047761091443
94.1400037456858
94.228362228838
94.281836634486
94.306595314178
94.3194207040963
94.3271567974618
94.3300545945213
94.355300031296
94.3715501006924
94.3534376092044
94.3402130482541
94.3305277125942
94.302396492869
94.2522378282529
94.1898046222778
94.1248047528408
94.0496503260706
93.9902412107223
93.9748402485865
94.0019606353641
94.0389198040034
94.0839543707966
94.1127689824222
94.1360295944607
94.1692407459704
94.2263219799937
94.2741260459782
94.3502739482535
94.4280610509969
94.4926056148439
94.5615857928478
94.6292189333692
94.6859790547317
94.7362665930293
94.776278864799
94.8130306948487
94.8556691532604
94.896125403405
94.9222596918365
94.9439146263219
94.9870373711008
95.0199640373968
95.0494562018513
95.0732686909608
95.0951438590617
95.1120353149467
95.1215109316642
95.1156455824318
95.0934826848216
95.0608410574596
95.0409199139401
95.0270096869438
95.0051102518273
94.9814574046122
94.9832355896071
95.0092217359704
95.0407124206576
95.0781889049127
95.1197490944978
95.1587679920833
95.1921673937316
95.2164444947483
95.2279834316984
95.2263172684087
95.2141161024437
95.2117351915456
95.2244313940092
95.247900895847
95.2940323801026
95.3488796430631
95.4111994309153
95.4806493010232
95.5525276015044
95.6212954548142
95.6946828795026
95.7719082206125
95.8411315828744
95.9102341393361
95.9840657181127
96.0535587405642
96.1173032975736
96.1795711250415
96.2434678276582
96.2930870193333
96.3283110198954
96.3686394950274
96.402928209607
96.4196407582498
96.4260043806635
96.4178934839204
96.3817941905745
96.3140043106867
96.21626975695
96.0787180962429
95.9144741563218
95.7480016207936
95.6011047046522
95.4941502953232
95.4366014153521
95.4163062694698
95.4178921353865
95.4322248014634
95.4631671892102
95.5117868390019
95.5712143517491
95.6423735232229
95.7172840717762
95.7987181239291
95.8909277295502
95.9750766498965
96.0578618686012
96.1336656240682
96.1985710965385
96.2655563539943
96.336145911477
96.39600908376
96.4277420114266
96.4478281146542
96.4672665136212
96.4707389583323
96.4564141960295
96.4312365888945
96.3871467070888
96.3318939019046
96.2675447742984
96.1883559072197
96.0979734646957
96.0024370401066
95.8892145699677
95.7473134884282
95.5845505952333
95.3963343424321
95.1834859732674
94.941768275849
94.6641349787068
94.3381700908429
93.967175440407
93.5613148911851
93.1249304775711
92.6831727168641
92.2394402128272
91.8058665609323
91.4195481355418
91.1052018472437
90.869472025008
90.7165837991719
90.6510665514174
90.6562950478394
90.721211106987
90.8299241208806
90.9544286705091
91.0867103852776
91.2310038747181
91.3735829472742
91.5131509851931
91.656516049622
91.7949806278615
91.9173602283942
92.0172461805416
92.1157938648187
92.22452258887
92.3504759560499
92.4961682889987
92.6594204320951
92.837619256086
93.0216754844252
93.2080970319107
93.3768948533418
93.5151373582928
93.6286999188961
93.6968760349648
93.7102942081235
93.6748642998091
93.600869815842
93.4925500357062
93.361067009595
93.2257678933272
93.0960198473922
92.9615785342327
92.8028439987819
92.6116490889018
92.3846387982213
92.1136656376765
91.8122853649238
91.5122396905098
91.2331832866602
90.9900930745859
90.7800160671423
90.5897138967086
90.4003648853633
90.1944461226746
89.9497000744141
89.644818830053
89.2656869929445
88.819832924791
88.3321995468693
87.8191437671681
87.3341230518495
86.9381304931207
86.6575051427449
86.4896896217163
86.4162125678565
86.4108794096746
86.4379565733837
86.4750394173468
86.5052431623923
86.5222599045076
86.5402315572467
86.5773351066602
86.6476185213048
86.7598341020094
86.9071093506782
87.0872299645465
87.2914906787864
87.4878223052767
87.6830033900808
87.8871859718044
88.0766548327329
88.2494916517411
88.4159871081039
88.5584759451187
88.6633035653214
88.7417907319165
88.8043298350845
88.8501939888575
88.887101893855
88.9265596207423
88.9722240686003
89.0075790715256
89.0139407145075
88.9971950593722
88.9484113142367
88.8363684439834
88.6724117862753
88.4825256108025
88.2634035071196
88.0272003046108
87.815672865669
87.6476178785797
87.4993248831235
87.3489762143977
87.1978790701726
87.0210888253416
86.7926993161363
86.5137006667101
86.1831714228722
85.8015501341583
85.3712069301263
84.8879058612994
84.3542787404647
83.7731060350439
83.1466592707457
82.5089730120613
81.8943960221997
81.3355280230224
80.8702690012294
80.494858256999
80.2035879480252
79.9902454940517
79.8336556128984
79.714140663634
79.6397794585638
79.6233975862136
79.6670778676736
79.7860589404777
79.9715673310033
80.1962592852603
80.4418320376699
80.6965364819097
80.9692413588016
81.2477277430264
81.4866337704568
81.6604314317984
81.7587180832251
81.7599306684655
81.6560325199318
81.4581200550902
81.1728111703748
80.8085887997034
80.4052520623405
79.9960843236085
79.6033899672013
79.2479766822795
78.9506792840223
78.7192035651415
78.541514606032
78.4193207780386
78.3636725802328
78.3568816223044
78.3767048900935
78.4179221376963
78.4774782246773
78.5598646657235
78.6497619316936
78.7462667567427
78.8554049463738
78.9570722041114
79.0518038495389
79.1421909071994
79.2259772673683
79.2942929577258
79.338786907404
79.3572528397857
79.3498274547797
79.3388647792086
79.348795657867
79.3932086385113
79.4483626626633
79.4862751671222
79.5059034298542
79.5085617091182
79.4992293276911
79.4800396443919
79.4556922556733
79.4193537341241
79.348229653551
79.2383764262
79.1195490063992
79.0100980771647
78.9159627303228
78.8493671333986
78.8215142845909
78.8351911108768
78.8827428578812
78.9599820672909
79.0545645635437
79.1514602857629
79.2568799261658
79.3570543452038
79.4255020565996
79.4659522899883
79.4620204179898
79.3970011647248
79.2902642015047
79.1397406814862
78.9524541895935
78.7877121949686
78.6941390995899
78.6745455742461
78.7424287000583
78.8835700827271
79.0652214673826
79.2919449886753
79.5503653546635
79.8131860705416
80.077430982045
80.3492518388953
80.6115747273291
80.8450341895654
81.0749158293527
81.3064656357625
81.5198756544933
81.7207038882312
81.9140042594907
82.1036304324838
82.280107751003
82.4557030555075
82.6574348276174
82.8482381621485
83.0156288438331
83.1947897042402
83.3896469071306
83.5719419676661
83.7361469429978
83.9122276232249
84.0980824800908
84.2713473898523
84.4403838677646
84.6075638235651
84.7620532286009
84.906955311006
85.0678954973619
85.2508963672077
85.4142594912067
85.5600136060297
85.7052391821248
85.8501983616934
85.9963321613733
86.1137126550967
86.2241500469172
86.349068679922
86.4716581319425
86.5849848168563
86.7028809527797
86.8164954472467
86.9108169993775
86.9938970943175
87.0847405485011
87.1870615335962
87.2724273185229
87.3449640055991
87.4199139712468
87.5003622841368
87.5751828509894
87.6488958897067
87.7367655523398
87.8089449529559
87.8775994287028
87.9630452665163
88.0428275572094
88.1234909806819
88.204715418263
88.282648801093
88.3620673081535
88.4242778185083
88.4969265105565
88.5767912449305
88.6293461187682
88.6649435708811
88.6845403544421
88.7052886296897
88.727761182673
88.7337696554972
88.7336565616588
88.7478021348174
88.7576210468654
88.7392290705233
88.7420994358173
88.7519320808634
88.7268253946325
88.7037215851077
88.6999513144771
88.6902013944096
88.6704150032703
88.6684608308108
88.6646918481085
88.6336757598718
88.6088134308023
88.5891807692807
88.57044289826
88.5527729405643
88.5453364045853
88.5598188139259
88.589146310356
88.6125089434693
88.6508945828063
88.7300440435671
88.8015383332352
88.8657258451311
88.9345481788964
88.9964767326778
89.0804393759814
89.169110792508
89.2489359054845
89.3336513267642
89.4342996967223
89.5087528523432
89.5585095273823
89.6372137015452
89.7309420332629
89.8150545667195
89.9015363615054
89.9884872236056
90.0523037263066
90.1338756028924
90.2160118374307
90.2835867782417
90.3382942632633
90.3835969490558
90.4335787043232
90.5112782157004
90.5991917159365
90.6305340373389
90.6778892851408
90.7600447464738
90.8132919269023
90.8314253505728
90.8511875560639
90.9039176501892
90.9683302852224
91.0186459453375
91.0599059193716
91.0952308397968
91.1239114103481
91.1441422496058
91.1787199981924
91.2427641551264
91.2994968548721
91.3305463154136
91.3455530105993
91.3648261541203
91.4073199183704
91.4365022712567
91.4664106109268
91.5209258760596
91.5500977857351
91.554545646188
91.5728185394107
91.5817462909714
91.5927486588499
91.5926718812413
91.5946632425404
91.6272766290525
91.6532120526514
91.6664364728823
91.6640403918392
91.6902675801807
91.718367334747
91.7228012917272
91.7263227385541
91.7281297090246
91.7462607336637
91.7856319194269
91.8519945282005
91.8773796177834
91.8806708592637
91.8735733135976
91.8671460176801
91.9148918866187
91.9501171480547
91.9351861116889
91.9302708458271
91.9193514574209
91.9332324433626
91.9820839906355
91.993398317335
91.9857684353065
91.9887539105285
91.9973823759322
92.0176257591218
91.9931462249717
91.9393936839233
91.9772623753707
92.0350282034693
92.0075308146242
92.0016095749556
92.0264699605578
92.0395789953966
92.0330901500254
92.0091854976601
92.0035346916048
92.0640055954997
92.0982511992002
92.062796752892
92.0665809176147
92.0516416123659
92.0236412493606
92.0730514997178
92.1391135594214
92.1108658536472
92.0749401843626
92.0946351381998
92.0997627384044
92.1019750621174
92.1202095747931
92.1304597065524
92.0943410321496
92.0808490747534
92.1049441417929
92.1026260494351
92.128524343028
92.1433996764804
92.0862082306481
92.0530227693226
92.0421287777264
92.0787578901489
92.1055508985047
92.0521921745369
92.0497017832406
92.0785688212617
92.0648704203459
92.0656717908166
92.0739203655516
92.0491381119848
92.0415336044683
92.0371488086506
91.9969628782574
91.9853737939713
91.9883682560003
91.9565692296469
91.9389496303482
91.9934392257166
92.0100230219474
91.9462008440596
91.883082695483
91.8460036745581
91.8633087937453
91.8448484732738
91.780615971818
91.7850441193382
91.757657905692
91.6910829736734
91.7457382804786
91.764648446929
91.7182355950038
91.6771835409799
91.6166545050479
91.5706455158146
91.5730408962888
91.5315885993306
91.4610689471157
91.4405923934256
91.4226122279528
91.4268953451561
91.4538247378212
91.4598043451447
91.4608599010593
91.4603712795766
91.3477571498797
91.2200924742014
91.2542908866377
91.3002752253519
91.2191402415224
91.1388179719436
91.1230714819504
91.0544518951784
90.9525212004873
90.8660664263464
90.87085790413
90.7951793143232
90.6095990546108
90.5917875711634
90.5455781415834
90.3591235155902
90.1489570286478
89.9985311784289
89.9316602090321
89.8363319334034
89.6230263780764
89.3774316190249
89.2509518123282
89.1186365721203
88.928659629295
88.7232309881185
88.5416612685932
88.4559862256337
88.3157833670893
88.0646511049393
87.9288700998725
87.7717656194647
87.5968986148193
87.5428908926728
87.4272471411209
87.2616529136769
87.1873712146817
87.1388842919356
87.0378302097687
86.9496651156507
86.9430317274842
86.9399398691321
86.8468574350023
86.8160585264291
86.9099213995191
86.9508306329258
86.8981172950746
86.7965334102048
86.6840004356996
86.7063272309342
86.7487498782917
86.7243207340428
86.7156258885758
86.6056838218618
86.5670861185487
86.6571914884424
86.8107956119372
86.8748523134364
86.7980496393791
86.7558895952257
86.7149197539945
86.6150643451624
86.5466218769442
86.5788067366183
86.6674529580696
86.579253154481
86.2998947177081
86.0627961294425
85.9327005998886
85.5585449990241
85.3014372800004
85.3111536873459
85.1173420594231
84.7831095966567
84.4568631208902
84.1997630508008
83.757374138186
83.4261029169377
83.7199874369776
83.8883356374391
83.7754796974695
83.3873190865563
82.8878890092864
82.790934942292
82.8471161724262
83.0765882482109
83.019333414868
83.1550260718664
83.5805036512562
83.625851052547
83.5850102615176
83.7500126819487
83.6693137949598
83.9076161813833
84.0148327332448
84.0451199936714
84.0948042391487
