3596
4000.36533379555
650.420452594757
1
128
2
99.538110015599
99.5415809222815
99.5350181378499
99.5358887285027
99.5775376098533
99.5447471601336
99.4841182306476
99.4827751779677
99.5416860611838
99.5525149909755
99.5467060243324
99.5079370078811
99.5208395788385
99.5229231354024
99.5083482828884
99.4999710623742
99.5202690156319
99.537382330911
99.5427301959073
99.511154148811
99.5067734241703
99.5149403795029
99.5483225908662
99.5406654416927
99.5076266815589
99.496293329293
99.5283304264312
99.5191591721247
99.5469385512805
99.5367158778353
99.4868538714274
99.4638307681106
99.5125332646245
99.5205401179003
99.519258898846
99.531489890092
99.5773484742075
99.5616185576934
99.5003639140121
99.4918097668206
99.5218872440462
99.5157150418844
99.5175827496911
99.5173270812414
99.5142994301668
99.4976304522697
99.5175966909223
99.5223962346518
99.5193169293377
99.5363937846686
99.56201537335
99.5420521141481
99.5343247585358
99.4368244753996
99.4101621046977
99.4305634811685
99.5109207227926
99.6463010871067
99.5957443942849
99.4723447059511
99.5300196277543
99.5356055331514
99.5652615421688
99.5627639880164
99.5826597745109
99.6022098503978
99.6108748894872
99.6015970112955
99.6500783444602
99.59601507469
99.542400063008
99.557596494738
99.525430526616
99.5197407748904
99.5290232364053
99.5269653371972
99.6019429981161
99.5574660508216
99.4874076543302
99.4581610731499
99.4809757474692
99.5755577390401
99.6004142367753
99.5153648249685
99.616578868119
99.6759839381865
99.5775400886224
99.4868750791128
99.4773698751376
99.5012953533913
99.5896740901566
99.6377565368946
99.5964780484383
99.5628872124002
99.5992671523889
99.6045509952324
99.6489283870657
99.6833890972846
99.7406022026184
99.7942787820566
99.6310518794277
99.6715111534649
99.5892005980709
99.5213182493004
99.6777729363542
99.4841997045105
99.3935540527668
99.4416477072466
99.5125489290104
99.5608299139715
99.6182252086376
99.6357471480133
99.7651955364569
99.7091154708948
99.5014093008677
99.5036233638885
99.5492040805325
99.6390264831089
99.8961225268665
99.8578778445188
99.5138318042833
99.4884282968482
99.519847666294
99.6230965830196
99.8352278767978
99.707196761538
99.4332232819731
99.4347132697916
99.5179706610844
99.5849638966962
99.7057948697555
99.796707181644
99.6083664966884
99.5118432253157
99.672052354451
99.8664436747906
99.9178376910741
99.5703137045641
99.3579275392917
99.4639159553269
99.7169658395528
99.844416001371
99.6454338053086
99.524353790199
99.6455206362679
99.5958105544232
99.4738689970805
99.5272146797251
99.6264778583577
99.7443929071347
99.7183350761395
99.7382297593986
100.103747103822
100.161325278393
99.8353046682189
99.7156615886266
99.3952237094292
99.3725807017685
99.4202413294908
99.4063052105546
99.5142017970952
99.5885052718881
99.6810286522041
99.8091948972173
99.7980226375518
99.5713497470757
99.7013407309053
99.8374209064177
99.6992273316023
99.7447618043317
99.9525576048477
99.6166154821727
99.4354142592068
99.6741235902114
99.6041771384117
99.4908478578137
99.6566893500828
99.7047075165267
99.4745237176712
99.4160946201029
99.4964545500098
99.6188937203654
99.7015906795737
99.5821385086873
99.5641921027705
99.637561121582
99.6978000871566
99.8890379931537
100.007954077926
99.8168672663211
99.5547671989123
99.4653023208506
99.5814283551095
99.8624828104987
99.7894078447495
99.4024078998628
99.3991786951546
99.4561830099672
99.5412210428202
99.5850824163549
99.6008822622375
99.6406169132266
99.773528702676
99.9504660756178
99.7977657016632
99.5133985209815
99.5067757785193
99.5864447898828
99.7194875817359
99.8903382194884
99.8147494843429
99.4483547244956
99.4235338078345
99.5055345662891
99.6675687238452
99.5921674756841
99.3788590415879
99.4218453549762
99.4813678488141
99.469974045237
99.5432787441082
99.5553908000177
99.5316770438572
99.5171507462726
99.5809375730794
99.6407521243323
99.6494187482242
99.6329075085006
99.5660812898081
99.5066303910849
99.5475792135609
99.5646585309354
99.6503211199967
99.6622389378675
99.4806209413173
99.4187208607088
99.4690490685107
99.5104482872421
99.5270968840365
99.5110567875129
99.524537401468
99.55311332771
99.6358910299633
99.7546414772322
99.5871247902691
99.3981870855272
99.4547400292702
99.592185974499
99.6354500102016
99.4113715105908
99.3873167299082
99.4458989406118
99.5242075556871
99.6029982457706
99.7394440684987
99.6022187712079
99.4652728794941
99.5441657515842
99.5506971907771
99.4386357638321
99.5464014300032
99.7912817528283
100.068530888677
99.8517744231299
99.7458971620557
100.010164496058
99.7543396070677
99.4459417530809
99.4721515469645
99.6383362117813
100.138387096234
99.9514141808041
99.2447695329993
99.2505247575722
99.5305578604654
99.4604805865339
99.4332741515072
99.5402861148791
99.6423898757964
99.7718520198073
99.7819597107655
99.7697443829824
99.4969437752512
99.5058626899335
99.6411991796794
99.328910760955
99.3037200547674
99.3249457583782
99.4376511538837
99.60839374853
99.6039851384037
99.4280694558767
99.3611946920115
99.3285169124533
99.5568117453312
99.4700913802925
99.2593173800553
99.3232921591305
99.4001476752836
99.2634440419578
99.2831459041816
99.3730129290595
99.4112053291792
99.4028590166497
99.5108816608442
99.6810772780341
99.4883729021626
99.2388682415836
99.3305440200149
99.2086810492986
99.059037648365
99.0678150610136
99.1339624397328
99.1402403335547
99.2227986054775
99.3103012998057
99.3546861575268
99.1761084601139
98.9654760281221
98.9755042538127
98.9993081465663
99.0107201779721
99.0314090998913
99.0413746784181
99.0563075056025
99.0389977349932
99.005393457099
99.0741232755373
99.1487767103898
98.98181876188
99.1136114957751
99.1258877307232
98.6971247016731
98.599043904619
98.5987370436408
98.594103696495
98.6020939154585
98.5442539699809
98.52676050087
98.5807005439375
98.7074820861745
98.6382585982593
98.4562080299563
98.5228937260981
98.7757293770292
98.7217834973068
98.1500107340969
97.8007552990725
97.918134880385
98.1582843844642
98.2481040468872
97.9117165893848
97.717686542244
97.4332209508867
97.3605670967985
97.3791638594751
97.3656704064575
97.3036594242268
97.2089319029516
97.1576554035504
97.1272717024201
97.0253130963279
96.9117237455832
96.848937568723
96.8553099597403
96.8954891781527
96.6732813581991
96.389162026391
96.2892377010901
96.2325364122848
96.3322103506058
96.3509705653953
96.2144515527861
96.0181950246265
95.7383319871907
95.6070883103668
95.2479305533509
95.0413798252653
95.0552018718146
94.9635487893624
94.9038550633729
94.7520198630501
94.6039840633248
94.4896898311447
94.3880626774072
94.2584528048734
94.1123493735673
94.0060560518873
93.9413233445595
93.8861264453387
93.7190114371633
93.5007696836295
93.4781189811161
93.4548457275011
93.4569133012414
93.2672115794057
92.9122773866099
92.6627778229285
92.6064788034811
92.461871570518
92.3901050801384
92.2823269918484
92.2179109040166
92.1529908074099
92.0625693978746
91.8373523920241
91.5577803287464
91.4357852266848
91.3686117078399
91.3433474176532
91.2521040325576
91.0445399578099
90.9864234289126
90.7699708920091
90.5942575144731
90.6051596979079
90.4889413370129
90.1578067065387
90.0752194268297
89.9549498028658
89.8675969640727
89.7767853273588
89.5920493257707
89.4819485183309
89.3947037208242
89.2266732342437
89.0663709386991
88.9763555496356
88.8327232816198
88.6862959338927
88.6301145978403
88.4716048862105
88.2732527069202
88.1581668288465
88.0346530762895
87.9243313415225
87.8643307947667
87.7822658266864
87.7466108760795
87.5430558737969
87.3816334360773
87.1107036922847
86.9542480148607
86.9193023998095
86.7701368555197
86.607907913843
86.5512423188731
86.4885668412068
86.3336555143468
86.129237977825
86.0054014777959
85.8728663116018
85.7291944716161
85.6215552790651
85.5343083455568
85.4023749225258
85.2531995480724
85.0639725668847
84.9468208433817
84.8578029291453
84.70794227865
84.430121481711
84.2509020108499
84.1081022481839
84.0710776407036
84.0219355870258
83.8344576951595
83.7449862030377
83.6593325409145
83.458863350465
83.3464148069671
83.2551297320068
83.0804282798479
82.9133254051149
82.8125188792467
82.7017881878809
82.5194315177266
82.3354716504371
82.1819928564579
82.0674699503504
81.9846752507696
81.8300422840879
81.6858559026023
81.5537203477924
81.4130483585214
81.2180185856694
81.0617545033152
80.9755922224963
80.8209406918157
80.6784265741281
80.5451916370791
80.3742737980156
80.2500629523821
80.0981074626098
79.9641799731175
79.8083885247746
79.6789033151113
79.5484057736297
79.3960169604744
79.2755876795697
79.1429498693286
78.9571918004441
78.774967835768
78.6257129183981
78.5049617291046
78.3644893247136
78.2530129624676
78.1987898257686
78.0633993615055
77.8136278282641
77.6555709690318
77.5390044801941
77.3860188632098
77.2536467408727
77.1421464605749
77.0195455670673
76.911520427399
76.8107443869075
76.7086475518979
76.5240544065196
76.3013122950919
76.1563591779948
76.0143287650546
75.8159258175092
75.6731101530469
75.5721299215434
75.4923594739828
75.3712665064331
75.2725216653122
75.1179970058333
74.9796407886508
74.8533996265155
74.6950914806772
74.56070437369
74.4383648936245
74.3186404681125
74.2300212518633
74.0901274132658
73.9409771502947
73.7543716196565
73.5836420509628
73.4775486918595
73.3471828347278
73.2397135730825
73.1623742208568
73.0070158936033
72.8237797086171
72.6667603216612
72.5742068948051
72.4584883142545
72.2708307141799
72.1547969889195
72.0535984449541
71.9152922060633
71.8303563328364
71.7432460510414
71.5888859828718
71.4378192531832
71.3404648314716
71.2587849971895
71.1318602517314
70.9786780447515
70.8697762252263
70.791387154241
70.6870776079251
70.5838189695063
70.4979298414062
70.3534584556246
70.2115770375159
70.0468661791025
69.8448844284456
69.6732944020658
69.5489412055374
69.4440704631831
69.3388744672053
69.2457029104917
69.1645031151356
69.0108684261045
68.8573887293657
68.7621172557876
68.672054530974
68.5701427426507
68.4368085775639
68.3154354875534
68.2011062006779
68.112991331068
68.0566226370652
67.9578173669014
67.8249581030745
67.7100287679393
67.5528334648049
67.3912859618036
67.3136447559768
67.2852346856756
67.2185469415221
67.0884967593259
66.9804073207421
66.9250076114085
66.8575318324272
66.7840243867667
66.7092437010158
66.6071177375895
66.4926668868002
66.3422477508581
66.1676726202442
66.0322670367028
65.9365303544137
65.8377907137943
65.7026751095914
65.5980365201055
65.4805329199219
65.3535433628649
65.2237502383161
65.1529004536026
65.062569697306
64.9376130796117
64.8554023652899
64.7941922043831
64.6933324586904
64.5886506187871
64.4847097847538
64.4269475797828
64.3480127418639
64.2521374802333
64.2045392501318
64.1663808211683
64.0974035496676
63.9962570336444
63.8333093015808
63.7079643643528
63.6552788881196
63.5849554956741
63.4739615082538
63.363872940767
63.2869461840346
63.2086304587159
63.1589033863645
63.1472365693798
63.075459409463
62.9598817267124
62.8399291229509
62.7482641880063
62.6538190455029
62.4943512728316
62.3869944444559
62.3538879126067
62.329307900774
62.3028680295585
62.2656986393492
62.2025698468311
62.1136511991549
62.0161426473545
61.9069408186683
61.8303305170732
61.7655050303818
61.7172959571007
61.6591509754495
61.597176731234
61.5335515659975
61.4984727574522
61.4813347291426
61.4610365057221
61.3861644543023
61.3229984597368
61.2895083694659
61.2449569877737
61.1886423686965
61.1086903017693
61.0157442218846
60.9832673485636
60.9506812486453
60.904585520718
60.8654210540705
60.8050696171215
60.715805388906
60.642665000382
60.5847760852809
60.5211388992491
60.4136364611936
60.3189066393039
60.2806045023333
60.2866040782324
60.2478285891188
60.2294260270411
60.1854887859815
60.0815464010987
60.0453313084174
60.0530170296447
60.0008242406121
59.9462922970524
59.9280670541279
59.9344147996753
59.9163132251628
59.8757880644163
59.7835711867158
59.6887434235553
59.6142936143824
59.5777879127149
59.5697510427926
59.5345721682857
59.5073310617807
59.494693108534
59.4341508099177
59.3673749465775
59.3081959049863
59.2670703194113
59.2179923484606
59.1761825122677
59.1303965636563
59.0807168659693
59.0324040527447
58.971068281687
58.9585114064987
58.9754864765477
58.9294547961931
58.9001847553044
58.9165775882622
58.9226269429483
58.890736034518
58.8847480294207
58.9099716522812
58.9161732380961
58.8546901466642
58.8248723380573
58.8121769224322
58.773496784396
58.7580937939078
58.8041265849238
58.8527084930783
58.8552169803902
58.8363715656053
58.8110566276474
58.8049375199945
58.8043621014241
58.7854215049183
58.7654060209952
58.755422497282
58.7786070858147
58.7906133730431
58.7714845717577
58.7577043308503
58.7572501447829
58.7090073654138
58.6475815423958
58.6211453862069
58.6055975072057
58.5805505582553
58.5470577867018
58.53139547907
58.5478900481527
58.5267069453704
58.5250755741842
58.5343740915949
58.5297218557552
58.4940966361633
58.4785426955432
58.45653974607
58.4405878672411
58.4159122645863
58.3840579653977
58.3432564331663
58.3453339883986
58.3688035295343
58.4088601366326
58.3973550929177
58.3540946877837
58.3437219333779
58.3488054505931
58.3147342602948
58.3017451227834
58.3081970276553
58.324715924867
58.3033301341334
58.2872254459825
58.2580220234315
58.2553227749551
58.2102270652534
58.1753644686415
58.2268268324259
58.2658062111845
58.218579252105
58.1597221467558
58.1105118462641
58.1025920474997
58.1058314126162
58.1001521655052
58.1115417157072
58.1054674905942
58.0602821807243
58.0814207999778
58.1271369925606
58.122256457129
58.1109662657192
58.119645300493
58.1110742160673
58.1485309819825
58.1475203273506
58.1289323400206
58.1134977773361
58.1210484757145
58.1333857029659
58.149931825939
58.1763215741508
58.2256602657166
58.258387995166
58.2537832397873
58.2335840383043
58.1828099426369
58.1495342850516
58.1920108179497
58.2156440032956
58.2455503464211
58.2756916634125
58.2764151211967
58.2682958166548
58.3239583554543
58.3532141784813
58.3579370978692
58.3756287057762
58.4301676587286
58.4071394763935
58.3534125796548
58.3404948692921
58.3559162999409
58.3902207637502
58.4154835380859
58.4268455850339
58.4535969695162
58.4735372142913
58.4957065879709
58.5200527867652
58.5604762199573
58.5802342499647
58.6000107141888
58.6386172156837
58.6780809284715
58.6790249424928
58.7107753178156
58.744413018987
58.7584196975343
58.7680750927043
58.7868951618881
58.8159979316307
58.8780294841001
58.8944513864119
58.907471518856
58.9406966918152
59.0004128629531
59.0432653235472
59.0745899030025
59.078338608893
59.1103362047538
59.1276097062589
59.1759200537468
59.2160800607745
59.2346700782585
59.2625640099292
59.309801548997
59.3358360188405
59.3772161597481
59.4377016594617
59.4846957433307
59.5162488776122
59.5617905810806
59.5768185445063
59.6359283467803
59.6854619011709
59.7039934982641
59.7268761972485
59.8102320581311
59.8606270649555
59.8937641753541
59.923576481221
59.9586711542146
59.9884514130523
60.0309999023578
60.074821206633
60.1411352817214
60.1901210720476
60.2412548839956
60.2657786452528
60.3033962409718
60.3663169613176
60.4348858475305
60.4860388351833
60.5357464773136
60.5944565667616
60.6591462864805
60.6910405412368
60.7263372692059
60.7801928456644
60.8425806986108
60.8860331386317
60.9569634769274
61.0223573487504
61.0764024390958
61.1109396531623
61.1622903770105
61.2008443524311
61.2499489554676
61.3124908038442
61.3614512997299
61.4188885330447
61.471506796834
61.5243108739028
61.6004325192421
61.6409139139362
61.6862314504395
61.7595605471829
61.8545071773404
61.9401811329789
62.0361513354424
62.1179613724403
62.1568279573177
62.1807189432491
62.2541661888439
62.3073053633286
62.3599613230874
62.4100603221303
62.4497740917953
62.4924516635735
62.5762162355671
62.6779405409332
62.7993986331168
62.9033562534302
62.9729768101688
63.005182752285
63.0292082078602
63.0506706903678
63.1076169478253
63.1778515613917
63.2762679452381
63.3785036254134
63.4398258333285
63.4815433616693
63.5253701160109
63.5718368659741
63.6384308836236
63.6881961203222
63.700617572372
63.7290251475933
63.8286974545147
63.9570851098554
64.0432538151755
64.1126910139673
64.2069209223618
64.3048950278209
64.4321595018845
64.57655623494
64.702234702169
64.7719740971768
64.8300974463304
64.8555219647321
64.901511116362
65.0023529851657
65.1159494980738
65.1901711752902
65.2711877458524
65.3475746406214
65.3996746814886
65.4219631258573
65.4581775857093
65.5153201752437
65.6235235428845
65.7598858634918
65.8847833106409
65.9613701657736
66.02246584155
66.071029691602
66.1381412257841
66.2054439259293
66.2560703758198
66.2667507608829
66.3387373707533
66.4619701688397
66.5854762865699
66.6690092417894
66.7530551487066
66.8075061816536
66.8438289345888
66.9398574782956
67.0803673979444
67.1557889798001
67.2134704058058
67.2977241471372
67.4086757656968
67.5011906950396
67.65387729154
67.824506136567
67.9445723122207
68.031485293281
68.1307619623462
68.1923129148767
68.2124645162179
68.2396876153372
68.3232811881511
68.3858584513083
68.4392094305445
68.5038844467674
68.6435293360314
68.782950449969
68.8283400634128
68.9049112074461
69.0863548631062
69.2057461017888
69.2562152870835
69.3196471962883
69.3944192510249
69.4406083489242
69.4958738496486
69.5387232471938
69.6069652352848
69.7500323912302
69.9067282008231
69.9799780939597
70.0227712293488
70.1127080953697
70.240920328249
70.3590950145381
70.4572235937715
70.5213964843897
70.5966493466852
70.6724424822737
70.7633551777355
70.8545919904231
70.9847437964981
71.1180759102167
71.228877569719
71.3437074921089
71.4695547125193
71.5369995261585
71.5890416739584
71.6416700719482
71.6904158046708
71.7751844580719
71.9318153137199
72.0511621842244
72.1539099493236
72.2658110467388
72.3634324424523
72.4493083064754
72.5531477579478
72.6297756905033
72.6876417011603
72.7866688185896
72.9215924551855
73.0071641204521
73.0911137686156
73.1571311284612
73.2117190380844
73.3050698894009
73.4310677203261
73.5127371393311
73.5891273819102
73.6828726556164
73.8074333718681
73.9098596260641
74.0177125819974
74.1346814514715
74.2771233162836
74.4033564580731
74.4969079869487
74.5935579222507
74.7075928275626
74.7804364610589
74.8370695842452
74.8901803761967
74.9804296100933
75.0434343204093
75.1082749158216
75.1659992816351
75.240862121595
75.3217213869484
75.4042178862645
75.4816979764872
75.5630533489392
75.6341250106301
75.6756253695112
75.7254844051702
75.8006419659653
75.8882836077578
75.9817989917811
76.0410503231593
76.0670912309263
76.0888780766629
76.1184338646623
76.1602802453793
76.2119429494087
76.2322448887911
76.2544834045318
76.2711478912624
76.2947480375139
76.300064165219
76.3162590655989
76.3360482301567
76.3323559423338
76.3131286600823
76.3104605019263
76.2907623015132
76.2609515242118
76.2110859054792
76.1364409873048
76.0564897012194
75.9648855510838
75.8709354900493
75.7775371702649
75.6508768261632
75.5350800401668
75.4142261121303
75.2962632600065
75.1646263924307
75.0191434610686
74.8885172807075
74.7599955755878
74.6179911612659
74.5238501334226
74.3997880415211
74.2767228049143
74.1772466441673
74.0755806272842
73.9851525832921
73.9183688776185
73.8683721743488
73.8229061198107
73.782687852507
73.7703512828529
73.7492589506093
73.7359644286085
73.7171617684163
73.7259409515849
73.7541143223883
73.797847465729
73.8202575308105
73.8613620310604
73.8859618218967
73.8992189407421
73.9450033836677
74.0066854438448
74.0327555139795
74.0764777182149
74.1223453025506
74.1583874833647
74.2248042669048
74.2854678407149
74.3415015842548
74.4083905018969
74.4935472156051
74.5913889832617
74.6700178945934
74.7969180625284
74.9145323397071
75.0044605884205
75.0852303504643
75.2103444761897
75.3420090493171
75.4602173930515
75.5963608173208
75.7292008290682
75.8358112366482
75.9881717314339
76.1515366888035
76.3025826460568
76.4693495320619
76.6309095702549
76.7754903354191
76.9459356355904
77.0977865998294
77.2563927742204
77.4015676204682
77.5535312593008
77.6962666056998
77.8294238670382
77.9698706427367
78.1045241566253
78.2185581047728
78.3513905935879
78.4875093561195
78.6188536590256
78.7376198855831
78.8382974131904
78.95263754888
79.092510060359
79.2272659854353
79.3739972184145
79.4927824417977
79.6024550638235
79.7245424812424
79.8283961977917
79.927795605923
80.0347914152892
80.112504735646
80.1899435346025
80.2600618186296
80.3313968092768
80.3844418445601
80.447899248734
80.513328355957
80.581684080707
80.6094885066315
80.6277019075007
80.6493354087699
80.6817699321493
80.7089312173774
80.7012811729162
80.6911265370285
80.6943178881557
80.7103768435773
80.7799511376041
80.8420460904477
80.8805071177557
80.9007128279744
80.9318068048533
80.9663515033595
81.0093892276583
81.0852354135955
81.139297407913
81.1779999976926
81.2400354631336
81.3142337737069
81.4031247666134
81.4713871346674
81.5448913930166
81.6744631195175
81.799006525054
81.8921622610538
81.9727774314802
82.0485881455722
82.1640982118317
82.2890883325993
82.4174331902524
82.5321367696029
82.6340988743328
82.7544430168711
82.8901365626068
83.0466498608902
83.2147482781958
83.3720178158223
83.5037021000081
83.6350438200191
83.7861404683982
83.9069336008787
83.9952986872726
84.0626461386474
84.1786750034693
84.3505817617305
84.5400275843032
84.6758477370703
84.7931096472287
84.9208268450754
85.0407155524619
85.1206615600861
85.2207178664104
85.3189181400021
85.4245526476924
85.5060931789423
85.5570097023585
85.6044734017317
85.6664726735878
85.7458157119727
85.8303911978882
85.9091793954815
85.9719554612864
86.0213400387954
86.0923311353031
86.1653831092563
86.234863485344
86.311965814681
86.3844016621401
86.4289959078307
86.4703426124917
86.53710326482
86.6131037791237
86.6532086859166
86.684908974888
86.7252288366736
86.8102530405909
86.9156015452203
87.0118089976924
87.0743220317383
87.1218354840944
87.1708063765069
87.2155900321343
87.2438841185048
87.2811856733753
87.3213048370177
87.347379692607
87.3507421037295
87.4258911527436
87.5497292197564
87.6209383527346
87.6626721112541
87.7333674630253
87.8004542117022
87.8226053892339
87.8469770758826
87.9008935941892
87.9363801708153
87.9851251448343
88.1257172961598
88.2594018324037
88.2975876109978
88.3207683999926
88.3484970209378
88.3741048888865
88.3900177850948
88.4139355996843
88.456797826802
88.4652314870234
88.4828024826174
88.5367416529433
88.5262041381727
88.5103756298623
88.5799234573568
88.6913705360567
88.7732392756062
88.8471874630918
88.8944227252018
88.9282066035423
88.9603366831773
88.9863203141399
89.019413065919
89.0505469474216
89.0719808997302
89.103971569489
89.1340142785169
89.1505154080258
89.1777004445451
89.2175621587516
89.2367908995283
89.2731745798364
89.3296232768026
89.3524278235852
89.3639531596201
89.4272120521411
89.4637798379214
89.4928979364777
89.5226099457051
89.535111671381
89.5358243172591
89.5534914330781
89.5924905696948
89.624472314165
89.6891657224508
89.7715478621946
89.8209089668455
89.8623780570703
89.8822243620273
89.8951884604193
89.9139952964898
89.9322910766218
89.9489887209541
89.9595240967478
89.9697104801906
90.0195612461196
90.0561818664371
90.0860766786664
90.1175060308787
90.141918276271
90.1603583154646
90.1773688346758
90.1726999697881
90.1701700027981
90.1970745316793
90.2361495309503
90.2422234094023
90.2867435200423
90.3629098851254
90.4021615816158
90.4010888767666
90.44136506292
90.4965709831804
90.5178661907422
90.5418276940595
90.5831564139777
90.6021347333595
90.5949395543628
90.6105630132201
90.6419756963272
90.6692603640657
90.6988917596896
90.7148765560206
90.7394199702813
90.7639107839036
90.7933976219098
90.8303953468078
90.8567208709719
90.8663681722763
90.9075030870372
90.9533339772068
90.9882977732957
91.001719225291
91.0138532817941
91.025921105587
91.0395930408556
91.0602221863512
91.0933233146013
91.1366895242771
91.1858593135041
91.214017830243
91.2332603962061
91.2423625191498
91.273415273187
91.3050915753379
91.3191831372392
91.3198752874498
91.3617928169016
91.4071467030474
91.4165902732656
91.4165748994169
91.4385333301201
91.4691917130682
91.4939806769374
91.5006398162347
91.5051671053358
91.5442319427204
91.6075623664193
91.6286652539676
91.6428802997272
91.6933945132322
91.7442907500037
91.7623950564188
91.7805916366737
91.8227160926714
91.8626719402291
91.867579120717
91.8670757013497
91.8674668639516
91.8907505433081
91.9185162030758
91.9423780973524
91.9604041459029
91.9801364552019
92.0023332944295
92.0101543081876
92.0186795779179
92.0292394525536
92.0361832564084
92.0603237390103
92.0897435172846
92.1056731433641
92.1217245485311
92.1448116491316
92.1610245643845
92.1889156711729
92.2079726994042
92.2198359382397
92.2399847777882
92.2566965413116
92.2879225601677
92.3367320572321
92.3361480189395
92.3408339612802
92.3857237333765
92.4170571587464
92.4232605711077
92.4216233459029
92.4627277592489
92.5280404350521
92.5306904649369
92.5203187244642
92.5643561102644
92.6378351116433
92.677461627955
92.7010111846599
92.713042049719
92.7382402823495
92.7683696672553
92.792321337115
92.8006264423102
92.8347504472768
92.8623296776499
92.884772415567
92.9145390960655
92.944863779563
92.9783109249689
93.0184233366232
93.0381124124626
93.0424230102407
93.0651654282021
93.1042269078587
93.1189122376538
93.1470380855679
93.1811266987978
93.2166681122766
93.2405842700649
93.2602817451142
93.2891785022584
93.308413263403
93.3192167497305
93.3564187425823
93.3784508289154
93.4021071906745
93.4259128775342
93.4397771192484
93.4570758459481
93.4971635158748
93.5254805294599
93.5400013672618
93.5523602254805
93.5816901620977
93.5917885440334
93.6161454365707
93.6521459820681
93.6891619654559
93.7136837683648
93.7408411566895
93.7408926285041
93.7461063254834
93.7694645093292
93.8206102754219
93.8774790547913
93.8614841215455
93.8168754622001
93.8420201521157
93.8933246724279
93.9173030080646
93.9472976745025
94.0108661128618
93.9964910220872
93.9759436176593
93.9835928543022
93.9943053001178
94.0227349045732
94.0490602611731
94.0683372660352
94.0871922010818
94.0751073770406
94.0931247892695
94.1196757077598
94.1458349323988
94.1616578917868
94.1733991525615
94.1737911641376
94.1763624144195
94.1710790203282
94.1800167268771
94.1760458182376
94.1992348622638
94.2170783377871
94.216998735525
94.2074511214926
94.201301586699
94.1947883906221
94.2331832832861
94.2688620390736
94.2749143050656
94.2867945852379
94.2973473006234
94.2980412730389
94.3236158443541
94.3057799124056
94.3009408920314
94.300576084564
94.2880027476809
94.3099739043523
94.3809939979304
94.4140074242103
94.4064523527451
94.3815905241513
94.3868729385017
94.409495156809
94.4115980856333
94.4089751647164
94.4311754846259
94.4009518962589
94.3762193237565
94.4247323310857
94.4845308535676
94.4583462561277
94.4469866015611
94.4609268738573
94.443136075804
94.4383578985652
94.4716171652556
94.4574321054836
94.4775606478789
94.473368052467
94.4166302444646
94.4198147904519
94.4576932732448
94.4658507170878
94.4767935987795
94.4822986229137
94.5186607602472
94.5272106459682
94.5063999756675
94.5112311687179
94.5393238702411
94.4972067227798
94.4572814438383
94.4622541130224
94.487788714247
94.5034960599782
94.5244869818229
94.5185688941468
94.5304599167738
94.5342633683239
94.5237641365086
94.5103392941083
94.4859838261342
94.453636083992
94.4468380382843
94.4688749621282
94.5390571607343
94.5381995813987
94.5054341788239
94.4926354780746
94.4950088681404
94.4856700387535
94.489489532715
94.4886905928293
94.5051807661429
94.5128567488147
94.5228034531129
94.527126309827
94.5303111250787
94.5041843420961
94.5115131861085
94.5209590523786
94.5071844007599
94.5047741093522
94.5004350659338
94.4897218874651
94.5263931851642
94.5674723925228
94.5912134465066
94.5665412589789
94.5377221100865
94.5308137961209
94.5526449321562
94.5328307312656
94.5070909110245
94.5299321570526
94.5298859767771
94.4943645060571
94.4973920256744
94.4881706488365
94.4974451146923
94.5310898273089
94.5363416810269
94.5008456979351
94.5069452179118
94.5281376631002
94.5339629690848
94.4807637037404
94.4659608767296
94.4972517952673
94.5180771733142
94.5138757411181
94.5191601456168
94.4978745367561
94.4859719788245
94.4936073998877
94.5031264965634
94.5011601855925
94.5180502602545
94.4965538302217
94.4687569039435
94.4570518399381
94.4693867890717
94.4849589663111
94.5169073666484
94.5350403632851
94.5476821967468
94.5258370940267
94.5320306987765
94.5435542088349
94.5232597079013
94.4890176787055
94.4974802180417
94.5094286138997
94.5020917531987
94.4775450143563
94.4870890277283
94.5086882703566
94.5347833531914
94.5244664885257
94.5267361025307
94.529287816767
94.5288275578274
94.482304000489
94.4860358577183
94.5046163436492
94.5008625580695
94.4735122669152
94.4595055612613
94.4664978153431
94.4898184230472
94.4691610223988
94.4885768359576
94.527714160851
94.5059682446366
94.4483652403253
94.4396462353561
94.4292154569751
94.4240294857306
94.4069537229261
94.4254659563884
94.4176188484325
94.3800845912225
94.387314083964
94.4345990721829
94.4246214409999
94.4071678648119
94.3865737132739
94.3891620488915
94.3747690901644
94.3577125360493
94.302090395039
94.2858937431726
94.3186649676887
94.3445341312371
94.3363230434234
94.3116832292111
94.2628681561026
94.2624706046995
94.2576223587916
94.250001155139
94.2252382451737
94.2062817846102
94.1899214184989
94.2013619713064
94.1755796516759
94.1517895888269
94.1281545953018
94.1459793613408
94.151096333572
94.1222695432461
94.0748588099828
94.0608083743974
94.044729428136
94.0472071278428
94.0466305599362
94.0374703577385
94.0036323885825
93.9924892465801
93.9804956368929
93.9611475485737
93.8966944135314
93.8751857249827
93.8747445665128
93.8892794781113
93.8620463379562
93.8304233609481
93.8057541238971
93.8240678456797
93.7893284747499
93.7314974603178
93.6987325992917
93.739768828409
93.766140299779
93.807769257565
93.7648295059511
93.7026173308353
93.7165082046575
93.8018636815487
93.7328976423253
93.6884852556986
93.7383746165224
93.7208630138224
93.6028226388041
93.6079503437105
93.5477762328005
93.5334805825539
93.5287750572564
93.5331955913092
93.5023922283207
93.4830397263864
93.4924874815072
93.5484741983182
93.5839595741847
93.6244488279708
93.5435938367338
93.4604775580916
93.3667629957859
93.3600734202588
93.3135376378487
93.2929190747881
93.2273556196382
93.2374963676073
93.1781462422716
93.2042952435025
93.207015571056
93.2230006680622
93.1454345946076
93.1793730927742
93.17764108075
93.2269951811356
93.1719188341332
93.1781066121932
93.101868543631
93.1117206286798
93.0382767162193
93.0642990404156
93.0210850757816
93.0258455142354
92.9357407668151
92.9437850497152
92.9315769053947
92.892136701777
92.8662234922747
92.9184511565722
92.9869785101428
92.9063851492022
92.9490693574156
92.9431694692705
92.9967146964768
92.9045052780677
93.0277114570315
92.9979957016755
93.0462093245727
93.0051152233096
93.0100737020461
92.9518555829505
93.0116672805982
93.0402022750896
92.9929951954374
92.9884060156591
92.9960885628456
93.0093963378027
93.0142680999645
93.0226624299709
93.0617898488514
93.0351709415265
93.051702412453
93.0603871077379
93.0712235224438
93.0298747944614
93.0242133494683
93.0209408304194
93.0450262843006
93.0605211379287
93.0642989672345
93.0447514948446
93.0214351047692
93.007506399818
93.0399478562823
93.053370639645
93.0567939752301
93.0509633728635
93.0886658163524
93.092665161142
93.0955718989445
93.1092973708401
93.1420806817166
93.1543341556712
93.1750932449729
93.1728906919142
93.195066538169
93.2245593668313
93.2109093036412
93.1894431974388
93.2761345818072
93.3165983796508
93.3135749097852
93.3362912885317
93.4002999243321
93.4284634641546
93.4499122000389
93.4700025655611
93.4420441028395
93.4230911603973
93.4941780376146
93.5131758688662
93.5474199399385
93.580463637225
93.596236756874
93.6329581706569
93.6337591321092
93.5790285010092
93.609771545365
93.6538708332124
93.7449127492103
93.8023673602942
93.814236253831
93.7793860319998
93.7697775295414
93.7999114937277
93.7675722934824
93.7206027317999
93.7627566578259
93.8366924081162
93.9304210862615
94.0011527697859
94.056781258415
94.0652527471667
94.0519180938841
94.0446028577348
94.0745951083884
94.1513211904602
94.2204994739633
94.2478823504565
94.2435670196928
94.2766289861249
94.3789142815038
94.4523229974167
94.4736746459717
94.423274931372
94.4097453137756
94.4186924356772
94.4732264573146
94.5386110490381
94.6013066665982
94.6707683585661
94.7231837081968
94.6819912731774
94.6496415706391
94.7758293186145
94.8497241291103
94.8235473635453
94.7802833511044
94.8087627941041
94.943806670102
95.0347320074353
95.0402280302311
95.0310688221471
95.0947088727959
95.1992444075599
95.218537244439
95.133686762916
95.1343436798906
95.2828129386644
95.3771287599925
95.351889058637
95.3136894585931
95.3060837877217
95.3660630197705
95.3970345704694
95.3869206621306
95.3801325034812
95.4398767080255
95.5061828226375
95.563098586074
95.6038382329018
95.6141394809269
95.6560918563836
95.6717607427065
95.6456395910251
95.7079760795629
95.8589603504258
95.961941162734
95.9996536637553
96.0001063856949
96.0503325090009
96.0924910036712
96.1215860109683
96.1910930174081
96.208770572768
96.3126179251423
96.3599596806131
96.3112798941269
96.4352878381392
96.5754102246796
96.6247407404359
96.5644447048808
96.4351955010037
96.4273488113473
96.6086491988372
96.7755190386245
96.8076663146283
96.8388669519919
96.8114479158774
96.7959153511854
96.8238743778735
96.855633921
96.9115532285935
97.1015693423566
97.3433353167995
97.399975060216
97.4406452376633
97.4877881290668
97.5948287360373
97.6802652808859
97.7407777513571
97.8946761537601
97.9991240290018
97.9245258409911
97.724763506166
97.6823330914634
97.7090338212411
97.5395499136965
97.3061629458417
97.1562599467179
97.1363086955556
97.0264851102783
96.871438529751
96.8267661660845
96.7069034745246
96.5819125183803
96.5536029173443
96.3948947397261
96.1820205006811
96.1288330132614
96.1704738709308
96.1857765594468
96.1669727613708
96.0958718369005
95.9051959917013
95.7878848133915
95.8096708195466
95.8174156317483
95.7066662833784
95.5314998770334
95.4111637927446
95.3882975857623
95.378082391913
95.231311072413
95.1033938624573
95.1384901215751
95.2428653928613
95.1862125216055
95.0118893287675
94.982910453382
95.0768421595045
95.0584234593643
94.9461051984968
94.8728585391689
94.8681766579844
94.9131361246912
94.9465291635972
94.9361951548617
94.8580626950107
94.8031708571689
94.8370295093898
94.8748242978921
94.8867689794267
94.9175648369919
94.9700643531996
95.052030898129
95.0999090241948
95.0501605999562
95.0358005658738
95.0578832159301
95.0447088864676
95.0457020424758
95.0921777206088
95.1552049607057
95.1889600585627
95.1510875396583
95.1659434956291
95.2055953969097
95.2085879629033
95.2275701267647
95.2435612051849
95.2720174459369
95.3082603063347
95.3006565464363
95.2902834355652
95.2951938654595
95.28439478196
95.2596288899086
95.2735996662202
95.3581258848025
95.4105256031747
95.4375079774245
95.4844992571501
95.4805611002994
95.4841757321412
95.5197826927974
95.6061089045091
95.6926495997391
95.6588423937442
95.6341751944942
95.682130323031
95.7615343106435
95.7722528264228
95.7690869038683
95.8630002009189
95.8905141646743
95.9025436668907
95.9868130887862
96.0141186625426
96.0735289120123
96.1687236105334
96.2162536753559
96.2126463698818
96.1634557963823
96.1444281340518
96.1328725875444
96.2465878193637
96.3689680808327
96.4346766494613
96.4202102935154
96.3302454327402
96.3278250898951
96.4314170316303
96.525874871567
96.5985304677462
96.6648725054869
96.8138233275224
96.898733599721
96.9126108159857
97.0493500905183
97.2150294840507
97.2133795552565
97.2084026583695
97.2981268977978
97.4823272015068
97.5893407316399
97.6427414582911
97.6791724719401
97.6803602664402
97.7141375570298
97.7638562822684
97.7940868710837
97.8535108178543
97.9293638676309
98.0571186942251
98.2219479855828
98.2279604755391
98.1334864076141
98.2581399377705
98.3729002744202
98.3358266618925
98.3660355459485
98.3523336768648
98.3980224920899
98.5020554158711
98.4439851442602
98.2658457845586
98.1050747270937
98.1801656538435
98.4171217105498
98.4519159995825
98.3538495563958
98.3694414021935
98.4923623765957
98.5413835784166
98.3519511261841
98.301736688372
98.3662199141256
98.3818631594228
98.4058707659488
98.4756833765979
98.3702765451202
98.2302065713399
98.2125183593378
98.2008408755136
98.1203572407431
98.0576094690252
98.019324490158
98.0931373767624
98.118851564277
97.8991635661661
97.739010299462
97.7511473577658
97.8216834192089
97.7770511341993
97.7082443439472
97.7331810156357
97.7601867986266
97.8515830913677
97.9965078613127
98.0926186549318
97.9596634293746
97.8188066886473
97.8718023308392
97.9446619711417
97.8217871290915
97.8626331211312
98.0300945260266
98.0604936029608
98.0162872993568
98.0330630039902
98.06971557952
98.1073870167419
98.159704987904
98.273139815417
98.4269607907891
98.6088788934576
98.5869993084496
98.6081114246897
98.5949385506909
98.4702424037759
98.4147671946926
98.3779725309041
98.3501834492435
98.3050443147164
98.3315090374839
98.2833762588846
98.1927887341255
98.1713294422703
98.2014652717151
98.1029859604432
98.0357633067092
97.999907716292
97.9360151445256
97.8884081774634
97.7826982453027
97.8016810903455
97.7914475406469
97.6586537163425
97.6381305533313
97.6337510335563
97.6125038663718
97.5341579842804
97.4341767344933
97.3827614854734
97.3722268103688
97.3901486756851
97.3562010989161
97.3591820883188
97.3701881743254
97.3095158690909
97.2416124318206
97.2107321196378
97.2419094268742
97.1729856915628
97.026767364554
97.0515342967937
97.084334721755
97.0739630095682
97.058184102797
97.0509270343209
97.028016743666
97.0016602352263
96.9954088163376
96.9553673247065
96.8844191095074
96.8823801618096
96.8775427909248
96.9096755931312
96.9162366269677
96.8246636757001
96.7810900137798
96.7918566045605
96.7778438421153
96.7533752914411
96.6122103213775
96.4971611946427
96.5828872836597
96.6898032842704
96.7134103808585
96.6566505230267
96.5577381265516
96.5673936586038
96.5354823205762
96.5564938545434
96.5791300068793
96.5765852995155
96.5848998879036
96.534795275323
96.475488983392
96.5314657960724
96.5854334329895
96.5312743493895
96.5111564727896
96.5400594039569
96.5068094900999
96.488500327267
96.47471823098
96.4510210176098
96.4534065544763
96.4584314819875
96.4589883838987
96.4703436084197
96.4285831495647
96.3788898071501
96.3546295303702
96.3578199005619
96.3682373909671
96.3939393980868
96.3795343133444
96.3647749040554
96.271793659243
96.206870592571
96.3004399525583
96.344418479442
96.3172409981276
96.2722049411714
96.2867306925643
96.2918391037966
96.3002537148003
96.3165524432943
96.307980519811
96.291780256696
96.290801916422
96.2837755829524
96.2697288568767
96.2615568373332
96.2451894092512
96.2328046178921
96.234689967447
96.2694816688592
96.2535116937196
96.2099354392479
96.0311606132867
95.9437023237749
95.974129721343
95.9958313337918
96.0663170887016
96.1030342263229
96.1449824494613
96.147142446508
96.1011586078032
96.0731685765465
96.0830072450675
96.0643865668366
96.0680270875481
96.0632249372976
96.0485965120098
96.046464422719
96.0678525975812
96.0666661695315
96.0709048379789
96.036555318967
96.0598877743758
96.0346647788205
95.9445079313558
95.8808268394364
95.9976981899016
96.0416172129867
95.9146838359772
95.6319280343219
95.7135872483798
95.8973035812268
95.9064973375205
95.9178275808417
95.9423925618264
95.9608571277875
95.900899239033
95.8484174640259
95.8755712919241
95.8770534718274
95.8378139585485
95.8666731394292
95.9158299234408
95.8345130151963
95.5926572363751
95.5064920810552
95.6761210886611
95.7917290003601
95.7866255565476
95.67115833584
95.5787722082407
95.6846905480186
95.7240780745289
95.7137409704052
95.7151863378234
95.7354322943633
95.7132390570111
95.6452878324076
95.631841297806
95.6439837899932
95.6551547325607
95.6427568739372
95.6118563987115
95.5381345012247
95.4735667181862
95.4520416387418
95.4404526930322
95.4503331966643
95.4512570587242
95.4689384260791
95.4766122377005
95.4848722859016
95.4544755955702
95.363639509112
95.3289836599815
95.2691343887207
95.1850761346944
95.1707491697524
95.2724382262515
95.3345189925332
95.2750010730134
95.2801647346498
95.2785809023364
95.1889257271182
94.9913183635124
94.8889175728329
95.0095809009703
95.0408729119503
95.1476176195035
95.1697891849905
95.2083649881808
95.1399890894772
95.0613551709273
94.9636819462862
95.010572796344
94.9977593642045
94.9355840429619
94.8809798842868
94.8634973227837
94.9020291522493
94.9172644944039
94.8908231739698
94.8369815488232
94.805611164275
94.8095319534923
94.6707967771584
94.3382140954149
94.3514954810896
94.5458535443791
94.589506052239
94.5364963901552
94.4847991978762
94.5808953906067
94.6028281225372
94.5849862205132
94.5618756922429
94.4127695324221
94.1512104733549
94.0838438756144
94.2324047146193
94.3042640642179
94.2037899469495
94.0423868429288
93.9620919452311
94.0461592972051
94.0844708137247
94.0953429377128
93.9732043869677
93.7109629306409
93.5231053235408
93.5325004432401
93.4790028819019
93.3381713870005
93.3819062148591
93.4098009316384
93.4049847298055
93.2472141282243
93.1024357082198
93.1145198086937
93.1222614388319
92.8712870719161
92.6523541801042
92.6195416441861
92.696567554897
92.6787048691595
92.5968214342115
92.2330558549012
91.6408877976649
91.5894825608546
91.8554165061938
91.8194990901636
91.6110276433857
91.4842291614955
91.4848284595009
91.380365246392
91.2146922917224
91.0659306327382
90.858919352364
90.6425752209742
90.4713030195613
90.3442610029465
90.2316140247932
90.0812095957105
89.758044450597
89.1716830380105
88.9923553185925
89.0122693280365
88.8945883746604
88.6428787647096
88.5805415234911
88.5819360452145
88.446625947985
88.1538936978803
87.835082162615
87.6603766451182
87.4496760076257
87.0754785517748
86.7193913442895
86.4431310715158
86.3131249455925
86.2374001746627
86.1884902617761
85.7322857100224
84.8468997614363
84.6664501717707
85.0116744335039
85.0069419908452
84.5097286714105
83.8854579122528
83.8470565916455
83.9692524796268
83.813785121145
83.5240259722711
83.1823129170118
82.8336654949331
82.4758129442461
82.1450591945568
81.9673114464089
81.787755140784
81.277689628128
80.373871609448
80.0298843800745
80.5160358696943
80.6551818541928
80.3424601394004
80.0478038198952
79.9044929951544
79.7188139809553
79.4565271852505
78.846770196334
78.23916900346
78.2673417412626
78.4048059921412
78.0933305650512
77.7359746708272
77.4575659326736
77.0229079979258
76.7634662082996
76.8459960685265
76.851168616153
76.6716885825766
76.5082435822871
76.1545810276885
75.6233578666864
75.3746802736661
75.4189712420941
75.3771750097473
75.2025607681106
75.0294968723061
74.8297765787512
74.6598574832785
74.3338903547003
73.6826936502515
72.5981914841241
71.8717204514178
73.166555059168
74.089746820368
74.3105767700244
74.0090822167408
73.5244992491443
73.1168081789951
72.8022594973506
73.072884657163
73.5254769273299
73.6787402722694
73.5786975299676
73.4894571904086
73.4036868332142
73.375330722633
73.2678110319482
73.0110396118445
72.8387110772155
72.2792038652519
72.1411982194785
73.1816243295574
73.9089893317026
74.0956436938738
74.1438964267164
74.1899965192648
74.2228361134645
73.9971159178477
73.8903630811206
74.158525348607
74.5210644725047
74.5924179318443
74.235934879498
74.2497076634146
74.7630496973077
75.1197014312807
75.2546109537042
75.3833301338705
75.4423883099078
74.9379991043136
74.4702206459136
74.9985657354773
75.508077554903
75.6338301385008
75.5924869164608
75.5491660108207
75.4525570900421
75.2204684732014
75.0272122390873
74.8695968879419
74.6688396890771
74.4846418003136
74.2939687755974
74.024345712756
73.6688578912038
73.3271747555512
72.9373613447655
72.5344836153996
72.11446488666
71.6458767808321
71.1201784564882
70.5752935130517
70.0112597197808
69.4063056516873
68.7650747098162
68.1596839289978
67.5207978800633
66.8445079653268
66.1450387471268
65.4520516959454
64.7544635502332
64.0265963337964
63.2573919800478
62.5116289767041
61.758238319789
61.0033892168205
60.23446164924
59.4961855172984
58.7259009760733
57.9590994363148
57.1996444787293
56.5193972139977
55.8153976207927
54.7947312469133
54.071454733434
53.729572606373
53.0890258594655
52.3023611753632
51.640484326977
51.023950320368
50.0688942039036
49.3506458213577
49.0208245822775
48.5399872853608
47.907238984014
47.1440727289832
46.5291692601171
46.1127846513205
45.5992869632869
45.061992291683
44.1095044987094
43.1815104060073
42.7496608511118
42.6480669645036
43.0799536196723
43.2115404282749
42.5676392741522
41.8626903749347
41.8547663992684
41.7197188531261
41.3004140286176
40.6007398716698
40.3475958303832
40.5018019102929
40.4043029154739
40.1552475534389
39.5642037764862
39.2836342733827
39.5468245112788
39.3010218969156
38.9695421988989
39.2479943288021
38.8680870282599
38.7118501045351
40.4489102816081
41.6961834033102
41.9403512635036
41.9643828366306
41.5647776160923
41.1588315375756
42.120727236806
43.1032593721042
43.8955188096281
44.4436497825604
44.5645137097639
44.6954691793553
45.3214137977454
45.6671221684541
46.0779027328263
47.5337089856246
48.0759839325285
47.817834737164
47.391779970544
48.5245126528275
51.2843558560111
52.6584013086819
52.1387136493242
52.1715529643094
53.6738199759208
54.8494884199338
55.8709536122975
56.133292067263
56.2182052948204
57.0905878992415
57.4085623502809
57.4410980891433
57.2609230947588
56.2983920817796
55.466727452516
57.7043555367942
61.35855009658
63.1225740047581
63.5230268168713
63.54908641962
63.7661254881504
63.8298531989647
63.2638740368234
63.7707080557236
64.2311788373076
63.9010160704616
65.1377416435598
66.5576584983306
67.171868037148
67.4722410017947
67.2806204069403
66.5425646777775
66.3415444516593
67.4710111277374
68.1314774454056
68.4898391100382
69.3025801245201
69.9075698975326
70.160243637473
70.264528342723
70.2504061580537
70.1299778479906
70.3160872035782
70.659463722421
70.9279659643104
71.0485527029789
70.5427227098639
70.482131869134
71.1074185800998
70.8651996571118
70.2975746455424
70.1481988369929
71.1061135660769
71.8844139102169
72.016973923947
71.8656452359731
71.6419224494592
71.4277720962452
70.7291083638603
70.027418739727
70.3378748026334
70.5363807103152
70.3728714996317
70.0918822151419
69.6104990631152
68.7522123090415
67.9108905436463
66.8218507965579
66.6555718290144
67.4084905595365
67.6936088553563
67.581655796696
67.1505787986203
66.8769802204554
66.8335538918393
66.8507956268953
66.6104293310177
66.3411925638079
66.9114294651378
67.494839496724
67.7729948228007
67.9567564907239
68.1059536201218
68.2265513911553
68.334270354837
68.4795128829071
68.6603431340898
68.8769003838955
68.5031949730355
67.634287392953
68.5361243088145
69.6347450343802
69.9190833130351
69.8559912413445
69.8488149616996
69.6843067434679
69.0865944318966
68.7049391842151
68.5558960900481
68.1849721165904
67.6319256162188
67.015947689952
66.1658766885895
65.1254888298559
64.3859576441109
63.5732504224175
62.7245332143269
61.44477239134
60.0772118413667
59.4159328130585
58.5591829921449
57.5988554683799
56.6484959053317
55.6668333390241
54.6492341459403
53.6502836021736
52.7051921762006
51.9055812398373
51.1629633859522
50.5144444311368
49.8828026740677
49.3269453249505
48.7335060712644
48.0287238317602
47.7465973581678
47.5990501091809
47.2356493916328
46.8856301177524
46.477476080329
45.8368424957298
45.5453454869584
45.662554626052
45.6260119486424
45.3141023327993
44.9071212200262
45.2756995220288
45.9335199175958
46.1720123211357
46.3074271664979
46.5823897597837
46.9529873332569
46.9675603051301
47.0321446624245
48.2161847224489
49.4694133449598
50.3480117918042
51.0596403848007
51.7782263168347
52.4949985692094
53.2355458876024
53.9282397611007
54.6286666200777
55.3121815201267
56.1282124812706
56.7209477509399
56.9325837729516
57.0680275920982
57.71433762454
58.6559429077421
59.1723872251275
59.4246662580759
59.4874325131628
59.4215155341255
59.6105385742504
59.8801732154621
60.0437635480124
60.1855037903977
60.0092056599814
59.6021765452831
60.008714964445
60.4784116611799
60.9799292441533
61.4643146401427
61.6718726739056
61.8497020188827
62.0684947678299
62.1990276229312
62.3333999993857
62.6611349006679
62.9851308636247
63.2367835027555
63.457592105116
63.6176601166382
63.767532092749
63.978791493462
64.150489971739
64.2584393502778
64.3481560069532
64.407249533712
64.4601232571451
64.5197890232697
64.5186130032059
64.2435074290709
64.0439692619552
64.1770085056771
64.5701044676118
64.8413672935529
64.9914497107039
65.1850643958376
65.225052183646
65.2211083477666
65.2198216244392
65.2693468513934
65.3174662030532
65.3841321204082
65.4586931371236
65.53261982394
65.5739179125967
65.6113573566513
65.6357015243086
65.6569191756564
65.6655564382097
65.709691144903
65.705677595582
65.6632450300767
65.5677164511587
65.6216012824352
65.7355304990857
65.8251374612472
65.9511205619561
66.0074922188073
66.0679107761254
66.1519040362997
66.3568104773577
66.6060521429631
66.7980328507616
66.9493878905839
67.0804373349815
67.2547720192027
67.4307259614838
67.5996676081005
67.7622488082565
67.9145883993527
68.0396153313565
68.1476818904797
68.2483360897025
68.3488727407124
68.4211247750977
68.4727054376408
68.5012169923201
68.5187072321796
68.5171556638026
68.4692785096422
68.3735387867902
68.2359167217519
68.0587687450346
67.8616473271393
67.677713173311
67.4724369552863
67.2572357457863
67.1003820862819
66.9807441094166
66.8746649118957
66.7999683844376
66.7711742059616
66.7947760351937
66.880306234569
67.0229503244726
67.2491477664969
67.5469054455784
67.8695356171444
68.204638905043
68.5485625052194
68.8855770541728
69.2053364287109
69.4859884341826
69.7249253975851
69.9961015962032
70.2511304935487
70.4824989801927
70.6914673559687
70.868716701829
71.0144421221663
71.1566533863371
71.2955402510209
71.4228366281081
71.5471967219021
71.6710022044129
71.7708418439699
71.9265791504555
72.1515052782917
72.3589716208086
72.553924545022
72.7469609558566
72.9399603118563
73.13028838027
73.3228014150934
73.5063067243354
73.6778529261766
73.8330689758141
73.9821027464879
74.1220998243847
74.2625637572042
74.3871687194202
74.514338972023
74.6465564087952
74.7794305143335
74.9215286608103
75.0611526179799
75.1825484694017
75.292298127005
75.3955683757016
75.4914448501647
75.5723428615849
75.6430861959259
75.7045859956502
75.7686513046337
75.8456065513041
75.9282736791693
76.0046683722934
76.0806679562137
76.1583709785952
76.2463255472684
76.3328806400656
76.4050549055978
76.4657170603751
76.5234788143139
76.5975897525508
76.6722930439973
76.728327907427
76.7704553938488
76.80775323296
76.8449697251643
76.8615112487162
76.8606451204452
76.8478333888166
76.8213169722204
76.772978745357
76.6938815864882
76.5930738054652
76.4628032007519
76.3190735022244
76.1726282268054
76.0016268819916
75.8153683505136
75.6415836158294
75.4987438295427
75.3901186766096
75.3202119926415
75.2934995039929
75.3145817826709
75.3661836476632
75.4403760216598
75.5390245732082
75.66692405038
75.8055327563859
75.9666624476019
76.1465509103779
76.3369307894729
76.5186891589533
76.6934832800635
76.874340360291
77.0542274788127
77.2244919128681
77.3898352032314
77.5344216136284
77.6563411067448
77.7570536991626
77.8517584849769
77.941922382034
78.0059692355829
78.050249731405
78.0856040081526
78.1045533070038
78.1110886371037
78.0994529146157
78.0818910308761
78.0649260817143
78.0335170019478
77.9896809917502
77.921188336872
77.8412928922189
77.7705116237425
77.6677153012459
77.5348953837315
77.3783476330443
77.1902253989293
76.9772668714119
76.7346730374631
76.4694994849124
76.195511120472
75.9182257801613
75.6460468890388
75.4066734126168
75.2126209062424
75.0633034110942
74.9676548315508
74.9307602738143
74.9481245972376
74.9923923695388
75.0588746800982
75.1319665370356
75.2181435425437
75.314486728214
75.419212914448
75.5411451836479
75.6723402561834
75.8055188649101
75.934955926399
76.0570089563343
76.1843452054601
76.327445873098
76.4848038892013
76.6521516887499
76.8184916408674
76.9743810474794
77.1259731444016
77.2531645059725
77.3543566574307
77.4292855881096
77.4684444878256
77.4715132086025
77.4353630223009
77.3687665228
77.2851068674749
77.1731735993382
77.047957194355
76.9229956687586
76.7994492474134
76.6668350543401
76.512209811805
76.3358865447952
76.1389976757839
75.9227193754676
75.705092141057
75.4915009456831
75.3047154620794
75.1443805415448
74.9930122357814
74.8356809647758
74.6610604843729
74.455706006385
74.2247628921618
73.9611492638081
73.6658635021107
73.3461473988183
73.0310085288381
72.7417194002941
72.4960947964176
72.3198354219215
72.2123685538298
72.1435408213887
72.1061704893764
72.0857014544191
72.0684028674576
72.0465157363906
72.0146869472922
71.9738699060543
71.9462194279325
71.9415051326261
71.9595618360328
71.9936642937173
72.0496633820315
72.1125040455647
72.166262403418
72.227596319048
72.2932407243926
72.3543833631377
72.417380701373
72.4787049642151
72.5433140127489
72.5904521454157
72.6267336208486
72.6648726251491
72.6938947334512
72.7210324345809
72.745241854881
72.7581469396756
72.7681010810824
72.7600143004407
72.7372030696904
72.687909015521
72.6137395068457
72.5086242038412
72.3683427937263
72.2125217383688
72.0480807392936
71.8971323757751
71.763777657388
71.6301582281206
71.507057036194
71.3900111754258
71.2595763098454
71.1220526229185
70.9850536421048
70.8254750776078
70.6371083968171
70.4201428870132
70.1874882355136
69.9270742197055
69.6307468348249
69.3018818279627
68.9480647049373
68.6008181593759
68.2948407636188
68.036786698962
67.8386962187787
67.6907339953069
67.5849097727412
67.508918252459
67.4512275033928
67.4117878401949
67.398749349591
67.424625038642
67.494104397362
67.5930586062844
67.714537647737
67.8474524489145
67.9947142372787
68.1447256832656
68.2953588847995
68.4411969464279
68.5689356983228
68.6628918170709
68.7083573153489
68.6899258376189
68.619741787986
68.5079890756146
68.3535614340893
68.157138815318
67.938891731333
67.7149691629306
67.5028886228268
67.3220146160902
67.1826978976217
67.0702129004806
66.9914439803698
66.9345837599808
66.8856128360922
66.8492112834471
66.8344672286237
66.816676954753
66.7998323517977
66.7910055827056
66.7841602577618
66.7737601789748
66.7644466645798
66.7626400775927
66.7703201907779
66.7758088695493
66.7778574297213
66.7774242848558
66.7746192019881
66.7646309526958
66.7573971676211
66.7611270509503
66.7844187245371
66.8171884148453
66.849077801839
66.8652440928138
66.8707701681735
66.869601623232
66.8688613053744
66.8630512059641
66.8439715152943
66.8037021783
66.7355171812067
66.6453317671269
66.5571003753897
66.4758012576603
66.4071033767001
66.3527172904255
66.3151293405684
66.3038323855147
66.3152375396519
66.3283894370479
66.3407013762579
66.3625667654821
66.3973577010425
66.4180950849572
66.4299353591266
66.4410636462464
66.440639326101
66.3955995264156
66.3175821526976
66.2274746063948
66.1419746985816
66.09262345741
66.093718083781
66.1318060897488
66.2037478117604
66.2984799566568
66.3966124568791
66.5083423175966
66.6368197850498
66.7480386882743
66.8413588808974
66.9346824316355
67.0180882285263
67.081398053365
67.1408537738372
67.1883346425764
67.2311839750667
67.2731201940865
67.3195949503286
67.3691149110707
67.4118815414831
67.4412932976766
67.47688521094
67.5110722987187
67.5424961136164
67.5752785955534
67.6095467301417
67.6514282087373
67.705523477246
67.7463466418039
67.7815797099427
67.8340288820377
67.8816252797485
67.920715274209
67.9761528134241
68.0132092468434
68.0437755470424
68.090513996382
68.1329858947743
68.1720642915622
68.2184908646937
68.2585390057265
68.2954859598099
68.3412270282498
68.3796454946446
68.3997183402978
68.4274992137038
68.4587511037345
68.4789952451939
68.5009993807086
68.5329113730387
68.5537279997192
68.562358797203
68.5756359403602
68.5988825288165
68.6044315072965
68.5970691958198
68.5956159205542
68.6047486856281
68.606746913022
68.6234821806372
68.6452671226049
68.6501201488516
68.6674959805391
68.7057648603407
68.7393415442496
68.7938534045878
68.8600458746875
68.9146034342046
68.9634823068278
69.007648219382
69.0517640533694
69.1027330291215
69.1388225489584
69.157199830027
69.1773273837479
69.2044822246816
69.2242308216157
69.2445724609338
69.2477542004451
69.2442527491525
69.2507262514664
69.2405719508605
69.2041193290269
69.1707793025039
69.1365581927671
69.100122980585
69.0636746784229
69.0214981094828
68.9727187048752
68.909666568348
68.8483337467442
68.7907129265805
68.7179653395142
68.6598745558603
68.618530353688
68.5809492386984
68.5282541173611
68.4850433593475
68.4624827511716
68.4359542317827
68.4058957686322
68.3996858828134
68.3897393615257
68.3688291271838
68.366063009495
68.3681967014652
68.3589645953546
68.3586191166264
68.3775437425101
68.3824953759565
68.3630606053611
68.3703678029107
68.4002724781214
68.4194463711877
68.4482441256681
68.5019498083562
68.5260411893604
68.5345411267845
68.5563629080865
68.5815945365344
68.5959376431359
68.6040540805093
68.6128754710421
68.6338395000057
68.652620804693
68.6597175077193
68.6758587615626
68.6923683345986
68.6815415660451
68.6554209024422
68.6425917533234
68.6466585663745
68.6296804381421
68.5854607349354
68.561219994741
68.5625005245004
68.5209321738327
68.4519120667073
68.390286806282
68.3331710511983
68.2670136336048
68.1885661558836
68.097074634375
68.0259530686106
67.9465180270974
67.8293532393737
67.6816970089351
67.5680457549356
67.4694016867855
67.3353222279255
67.1980126635111
67.0557238414385
66.9031394305232
66.7379847450852
66.5720901352093
66.4304303640201
66.2737221087554
66.1134690523876
65.9629985210508
65.8143553905505
65.6788186918659
65.53330984957
65.3474568279736
65.157364233963
64.9733643036399
64.7883771818336
64.6092774020717
64.4254914144658
64.2131627753334
64.0007191644579
63.7840734150714
63.5686614066823
63.364855622444
63.1763199780564
62.9894701393694
62.7930954334758
62.6050881551844
62.4515282624303
62.3343343699519
62.2336886923103
62.1086430307754
61.9839534060022
61.8843957418831
61.8138514939734
61.7547734433537
61.6738309764033
61.5913915026505
61.5411185149461
61.4942916615079
61.4259646760281
61.3528056064654
61.2930340468684
61.2429961733245
61.1999049831746
61.151654893179
61.1126902966196
61.0648973845727
60.9855444298276
60.9272219868522
60.9061890165037
60.8475406796583
60.7984753626132
60.7971733757016
60.7721238876944
60.7174766078899
60.6731894531684
60.6254616847925
60.5751060152812
60.5274939626743
60.4885474431897
60.449675300665
60.4037269644737
60.3519339564701
60.288101887594
60.2214376284987
60.1438076135044
60.0498759972361
59.9439377752618
59.8144952927243
59.723501242976
59.6420976170376
59.5475467813648
59.4288824317505
59.2973027225962
59.1744972072888
59.0388425599324
58.9252618350451
58.8203009164855
58.6560557255606
58.4702404110386
58.3130357375465
58.142470131276
57.9663478850129
57.8339835240029
57.7227797693871
57.6018836481724
57.4892699932588
57.3812600955584
57.2563742910411
57.1307711679211
57.0368083330553
56.9918215415121
56.9549942148412
56.9535085533503
56.9258759093168
56.8449328302831
56.8275178406237
56.8073560997771
56.7143212304654
56.6682256915816
56.6956255185309
56.6599529603586
56.5769237693762
56.5537000146095
56.5541634634307
56.5404078422327
56.5053818264944
56.4643038458496
56.4175548422416
56.3730113360965
56.3647524378501
56.3337442300153
56.2789153153512
56.2176705319791
56.1509776717919
56.126126182725
56.0533889423952
55.9766629192336
55.9545717680862
55.8900954867898
55.7897533544357
55.7303464437997
55.6614995592796
55.579996410964
55.4779847712785
55.3111892753965
55.2056101271582
55.1498545106223
55.037144301565
54.8849329434175
54.7485143611592
54.576443149943
54.4202715576349
54.3461207979065
54.2335720849863
54.0560715932272
53.928087540011
53.7957294772417
53.5571811826655
53.3303922678859
53.2192351625074
53.1389084855211
52.950865646068
52.7520530715157
52.6582692765823
52.5136221311734
52.2988401178743
52.1196321974144
51.947511582906
51.8021095606372
51.690341763518
51.581195524012
51.5166251192477
51.4192223518655
51.1567336328406
50.9085446350762
50.8562823219231
50.844680477773
50.7668477361132
50.5700043670394
50.3923851001713
50.2695070267477
50.1750918594997
50.1626519039949
50.0930442001559
49.9506420207316
49.862502820131
49.8408317716133
49.7439815959109
49.5575139418367
49.4002522357705
49.3000869651119
49.2721574435295
49.1144960735327
48.9223995390049
48.8406419972637
48.7285144280534
48.5186674642305
48.3544554974281
48.1514177123679
47.8256470958513
47.5542072450427
47.4496700958305
47.3379450992026
47.2404347960873
47.1065932623439
46.656277389646
45.7266055463088
45.6597955896185
46.6254813909543
46.6840680649914
46.2489958476549
45.7599834671671
45.4030975360151
45.326425840156
45.2920164899064
45.1212849722796
44.73618861251
44.7035177184421
44.8949919676892
44.7833355374139
44.6956124218249
44.5851927469855
44.0227594325664
43.7931374589942
44.0156811409618
44.1830489653796
43.7798906863048
