3596
4000.36533379555
650.420452594757
1
128
2
100.315829537078
100.313972711032
100.357728882662
100.323325108019
100.317547035835
100.308098827139
100.33129236516
100.324925878906
100.328814543143
100.294538357027
100.310961248344
100.335306946973
100.347775247376
100.295924270044
100.299253218784
100.35683972974
100.377688806744
100.336682455525
100.349234927623
100.347545403576
100.322134213733
100.299443118981
100.293779641812
100.263217739807
100.319534196405
100.320118768178
100.292147951704
100.292935629985
100.320439876879
100.326456774003
100.319985414741
100.294279267991
100.322951438291
100.300337116667
100.296226526374
100.331465101699
100.371614600534
100.363644582872
100.326135512026
100.310567910205
100.336115604093
100.336279758653
100.349488247035
100.30999193863
100.319274966137
100.321665028352
100.338366151316
100.345590169331
100.358326527789
100.368597870962
100.37571157129
100.320375854918
100.382342724887
100.333265708178
100.251227315665
100.288620849783
100.343950835661
100.354898425615
100.35465157173
100.237498591429
100.248493464705
100.261652740554
100.279832624876
100.284979074736
100.346737807841
100.370024903649
100.393596563041
100.411778922854
100.422290016386
100.429289448305
100.366935654628
100.295975470692
100.260481339745
100.260062724828
100.293890205114
100.287878033899
100.37157371038
100.357631623283
100.22712540447
100.24776482162
100.33418250927
100.390747768148
100.436023791517
100.319473349122
100.282345892197
100.396910627114
100.357845370864
100.189339880069
100.15847558881
100.215727517618
100.282211887516
100.314554805015
100.333888163926
100.36361187263
100.396205159699
100.415272894977
100.470146752493
100.541920732089
100.584225214192
100.681563852693
100.535505014265
100.528617706636
100.592083974346
100.332799661223
100.460282113509
100.275740225642
100.030763412827
100.106444654437
100.187566839391
100.243707266813
100.307798608525
100.334505299332
100.479723449266
100.56740547925
100.342953315962
100.214745049935
100.284829632707
100.394480634547
100.6734960553
100.779818226547
100.351756304081
100.226416985051
100.345565043165
100.37291200517
100.532380330311
100.510250637387
100.168580250413
100.106471837288
100.253981985488
100.349073983742
100.448000394022
100.576581629492
100.471262108148
100.319883394948
100.492718038213
100.698339535535
100.820376278331
100.39961210325
100.11770349502
100.219387744603
100.409714135671
100.575958787413
100.395121599121
100.159987360401
100.338860485696
100.359079430445
100.174394955764
100.26619481212
100.408329588515
100.449992965316
100.459470272475
100.460144596959
100.84314216145
101.151565449247
100.864762877327
100.719026219468
100.353454670912
100.075676742714
100.147504391134
100.053527349619
100.140656274373
100.257464950128
100.377238536063
100.446354657585
100.525620162503
100.402110398201
100.506036042826
100.644272535103
100.500236394568
100.441036492513
100.662782529687
100.497570278945
100.195374911758
100.381899832623
100.316377770434
100.10936865316
100.246164172708
100.324513506702
100.142429377057
100.075295889012
100.228298934326
100.338735643346
100.424374384281
100.351356165308
100.256707759345
100.286403679246
100.423137651375
100.655695639525
100.858595156117
100.651547938579
100.26920589223
100.149222272794
100.217874341694
100.457524767536
100.577055192438
100.127393704398
100.027238847507
100.086174903827
100.154076302444
100.24341373022
100.317223478236
100.325454987267
100.420463346342
100.673989588409
100.649707844151
100.283951626831
100.300665489237
100.414268373944
100.547754390159
100.71475006372
100.652082432744
100.179761693576
100.114048506212
100.222964716331
100.313615714002
100.260762875857
100.093114948824
100.033904989178
100.076813845039
100.114414822741
100.183125982133
100.19243563957
100.221135780448
100.195503531325
100.236420925487
100.280625043996
100.324795996941
100.290746414596
100.203674198382
100.137320832687
100.225138691299
100.279566620419
100.379775621029
100.439216595851
100.231319782163
100.090740628316
100.171516517654
100.168831345456
100.174137826843
100.145847668153
100.172339771816
100.239740120298
100.360181286629
100.462150148106
100.304797969342
100.054825753448
100.192647542296
100.309005629526
100.372946513715
100.104088961409
100.035077897232
100.113720286218
100.196520108712
100.247317528416
100.414491084939
100.284206620887
100.092525560996
100.240593306527
100.348464536916
100.152228641956
100.262129714709
100.490818765056
100.754600432834
100.691843393037
100.41893150815
100.663879337747
100.565198181093
100.067653202485
100.149981186813
100.364744257107
100.917450564381
100.920152058026
100.082184608549
99.9257436441929
100.137140898252
100.055129533555
100.059050639796
100.210175878147
100.290110926273
100.416647738389
100.50240009724
100.498319962027
100.153348511104
99.9749670985679
100.295895655595
99.9122559544481
99.7337559164628
99.8763970743349
100.022001795448
100.155963623536
100.186345676666
100.016999977531
99.9792323291086
99.9452497018677
100.117245458012
100.069031573451
99.8352069632687
99.8679483087299
99.9192411927193
99.8015764343199
99.8005076407578
99.9026886178549
99.9860059329808
100.039024548816
100.105973091871
100.302988086991
100.257266706425
99.9194079941902
99.9365951284876
99.8853807408562
99.7008521210699
99.6077388503225
99.5964257846451
99.6419117196598
99.7151765312885
99.7556821518026
99.848887742257
99.7934652899374
99.5626688055487
99.5189889502853
99.5778014116863
99.5949573637987
99.6045411184469
99.5699932499483
99.5550036970663
99.5205008979359
99.6040928814605
99.7723059876613
99.8203100132097
99.5767741636645
99.5864074705456
99.7034131807217
99.2983980283462
99.0065866646665
99.0328979243827
99.0270680748868
98.9994018953855
98.9348380348547
98.9672342293205
99.0225880202345
99.1260644197991
99.058133835411
98.9365934735344
99.1209832197503
99.4642513478345
99.3450802730236
98.6785929059266
98.2767054530322
98.3994537706124
98.5772517509206
98.711809349769
98.2734254264061
97.9686587879945
97.7695144539924
97.6039912698545
97.5668654823578
97.5313350919695
97.5029493506376
97.4479230803203
97.3992128092043
97.3180760790433
97.2967074780314
97.2419335683784
97.1505270710781
97.1559230324491
97.1975364184109
97.0108449646568
96.6428224926624
96.5882835955455
96.5913795278512
96.6024711765766
96.6701084470009
96.505889989328
96.2417874904876
96.0088643932572
95.7926494854524
95.4850990267276
95.1386407479612
95.0743741764687
95.0001346957701
94.9992900303339
94.8306536844892
94.6506738661618
94.5814480444002
94.5164142610617
94.3894675391025
94.2463421378789
94.10383281495
94.1044164308857
94.0219867682685
93.8716488775967
93.6336668035029
93.5830859405634
93.5572297238422
93.6460540648676
93.53435951028
93.0727794519272
92.6440405426261
92.5426273538222
92.3826781797797
92.2849108377949
92.2378423806866
92.1565644471003
92.0774087776865
91.9804617759448
91.8829877786686
91.6021846369851
91.372441336978
91.2095972009391
90.9737369810012
90.942402197481
90.8514211515595
90.7380346143612
90.4319591831848
90.2501172146402
90.3257597069583
90.265054732949
89.916216030826
89.7105779052258
89.6261051742658
89.5159180170899
89.3949413971139
89.2458075003976
89.1784364803156
89.0755851483518
88.8816974469757
88.6904918261764
88.582329933373
88.4621754445566
88.2999543673718
88.179315971613
88.0277372687869
87.7915280420083
87.6451361879376
87.5546406868591
87.3740661395434
87.3022993109984
87.1759577041499
87.1189634727728
86.9091684880927
86.68234355086
86.4427810426284
86.1936896824795
86.1868846436281
86.0868954545506
85.9067712808361
85.784490287777
85.6563817651787
85.5097299546151
85.32155460298
85.1883939807639
85.1064410501479
84.9568952082586
84.8225752468055
84.7468854960356
84.5745732451443
84.4493226608623
84.2635202631586
84.1091953574887
83.974513004968
83.8183724906267
83.4491090857823
83.1373800039845
82.9915551018376
82.8231641879625
82.8107666540834
82.7189145175984
82.6716942250274
82.5714255845231
82.4299385515862
82.2262513935921
82.0674753445305
81.9493855965794
81.8219985799944
81.6885683905724
81.5142001434009
81.3443582314326
81.1879844764757
80.9719683197628
80.786897564323
80.727869920993
80.6105697299966
80.4276718936748
80.2613882329015
80.0457342094023
79.8793383669572
79.7379760294009
79.5674545199216
79.4162169381389
79.2681520153848
79.1749280694356
79.0182503085508
78.9083639864537
78.751404962693
78.6076486631507
78.460644864725
78.2692276643593
78.1095629251787
77.9913665768386
77.8568734107655
77.6763783609231
77.5018791295597
77.396649208116
77.2177459035678
77.0052408179212
76.8447556308906
76.7169977948114
76.5815635812403
76.4339791096629
76.2473053674041
76.0423385233407
75.955523817398
75.8685426962901
75.7218205865615
75.5559877259143
75.4154270178591
75.3285846253461
75.1908011077846
75.041382684942
74.868644841757
74.7045450819404
74.5511137885766
74.3596526990678
74.1567107150438
74.0255655632619
73.9113009556774
73.8164011955068
73.7017821447147
73.6296013117469
73.5030421835995
73.2866704471521
73.055178868574
72.87865424856
72.7345830088913
72.624832018855
72.5632227764643
72.4670835417903
72.2974294837343
72.1515257184922
72.0198006425876
71.8753496327602
71.7241125553605
71.5831245264233
71.4781460230454
71.3649181802381
71.2034150322225
71.0585272310462
70.9501176292088
70.8187943354464
70.6535028238284
70.5452888602206
70.4301697684121
70.2933532058372
70.1779619831297
70.0500034455236
69.9329552843257
69.7848694932173
69.6347553856456
69.4849569224729
69.3247300611766
69.1719076050055
69.0912605865537
68.9753404511731
68.8597144194834
68.8049944704815
68.7295099515152
68.6281166384095
68.5064185353536
68.3489099745835
68.190609121213
68.0113895970423
67.8348112825032
67.7126868205707
67.6192620048525
67.5137477208072
67.4209059461701
67.3379925726116
67.1825521753983
67.0236144239895
66.9181328552811
66.8202759336198
66.7056231677294
66.5467543147005
66.4494679779581
66.3897276630045
66.2879333161444
66.1656173765708
66.0555722451815
65.9488273266388
65.8457194342844
65.7056444663531
65.561014336075
65.4123245229464
65.2995042835172
65.2142020592024
65.1739368192785
65.0913275892883
65.0295144875847
64.9631227480203
64.8318241138321
64.7321663355907
64.6340420886816
64.4987800979738
64.35617807537
64.2402112371251
64.1513212474694
64.0579468811879
63.9566872740314
63.8353402572632
63.6874571652822
63.5563676024974
63.4828125519054
63.3992350434491
63.2978474487694
63.1945756758994
63.1153802086722
63.0208361900356
62.8934159666586
62.7903375417644
62.7083156405357
62.6063335292888
62.503008253692
62.4356139677459
62.4003820035823
62.3246955931779
62.2611574003147
62.1979220286925
62.0781784055093
61.9832501187143
61.8828864050764
61.7950161277991
61.7416689619202
61.6346602316663
61.5661217898394
61.4970507188727
61.4184534337601
61.3263299225148
61.2243715462801
61.1877769590796
61.1513397211269
61.0207828853922
60.9039889242767
60.8106963036567
60.6984148966724
60.6217547308773
60.5839673617519
60.5576065025297
60.4978010549204
60.4176782710306
60.3583982069483
60.2767077437253
60.1901241443503
60.1210635278589
60.0706662586555
60.0257325809233
59.9683473385781
59.8960403957312
59.8239424860823
59.80261736106
59.8005040954835
59.7625280722954
59.7383875259772
59.6860858600735
59.6279577299997
59.585713425781
59.5343249220299
59.4459161661867
59.3835868866817
59.3567402949441
59.3265220409776
59.2844616956998
59.2659502441735
59.2390167209808
59.172650323242
59.1010964987494
59.0349169922507
58.9714759008001
58.9245710217941
58.8513685795906
58.8134034954783
58.7956257934693
58.7854462152553
58.7560929554847
58.7144014584859
58.7000536043374
58.6704750993128
58.6170046162101
58.6188989441688
58.6149152204308
58.5579062837821
58.5144733355428
58.5289248257058
58.5291791143404
58.5292888755936
58.4929251983286
58.4502521262513
58.3998985541058
58.3619469602414
58.30861868054
58.2822776242722
58.2925050647928
58.2890390765809
58.2439839380044
58.2060708655645
58.1973835130319
58.2043705437703
58.1756339625719
58.1428113292974
58.0734507337937
58.0189991810433
58.0103540950455
58.0238076669804
58.0319911742022
58.0504058949283
58.0451278962133
58.0477048761777
58.0595452665859
58.1013646446165
58.0951069676594
58.0567359973177
58.0298190476971
58.0306475247257
58.0307132723499
58.0146623560757
58.0160268060572
58.0371728476179
58.0262484274409
58.0303423046153
58.0280377210871
58.042338344874
58.0655177517964
58.0683923574788
58.0778347385615
58.1002787220213
58.0965004599917
58.0899526889848
58.0935228621961
58.103421900944
58.0718859722949
58.0473470708006
58.0556580186432
58.0787108925693
58.1037559965808
58.0861309683761
58.067397528329
58.0624811516536
58.030879040063
58.0431388618534
58.0445676961787
58.0388437663409
58.0286679621666
58.0326368697653
58.0392299940859
58.0499861371983
58.0378763724106
58.0089840555412
57.969277371904
57.9511801537502
57.9395016989404
57.9790982744814
57.9739618511504
57.957241554984
57.9461258502983
57.94522371611
57.9362279330308
57.9216965260448
57.9045184165867
57.9105325892076
57.9124559031154
57.910833953974
57.8941219907069
57.8874241260468
57.8745657798555
57.8832283068161
57.8595746896387
57.8280893876144
57.8024978246213
57.8011913461112
57.7879960310117
57.7943343406331
57.7987396445791
57.8157774768608
57.8124018824495
57.7902410422099
57.7709140118955
57.7636090295365
57.777325381467
57.8037009000299
57.7992601953099
57.7961501144989
57.7706289758863
57.7641371036046
57.7796463034259
57.8056660574005
57.8129333645741
57.8163692310974
57.8172743449477
57.8214745846018
57.8166959839359
57.8296235402939
57.8436412931408
57.8660579914521
57.8643688547743
57.9021920588088
57.9203229671141
57.8921816000347
57.8549738353826
57.8677529816683
57.8998655007987
57.9217650983227
57.9508151457845
57.9866776361621
57.9797274741636
57.98160413394
57.995845654113
58.0606238502529
58.0926032309188
58.0915649621312
58.0825305789199
58.0984133269222
58.1255970188078
58.1638962329012
58.1842289160588
58.1893073620559
58.1842452120792
58.2143917546419
58.2138479344925
58.2548851946503
58.3003978075195
58.3267667386076
58.3363281403415
58.3720652120208
58.422736863847
58.4775555381276
58.4759423473104
58.4749115620734
58.4875893799783
58.5214336664685
58.557452234027
58.6175536305505
58.6487243784099
58.6853387937083
58.7146342942678
58.7320872756619
58.7422200391748
58.7965045687431
58.8425345479725
58.8958308434141
58.9535090369847
58.9908814688742
59.0033111201333
59.025384240124
59.0482149499917
59.1005124549458
59.1302220150958
59.1697464033258
59.2174536421046
59.2568880672264
59.276809529867
59.3192880881756
59.3528650770131
59.4016824186146
59.4536769183922
59.5267611705241
59.5781926694776
59.5937652537144
59.6026996664936
59.661767183042
59.7294273328484
59.7844827871378
59.8106751327082
59.8655590929452
59.9005420474044
59.9476350070747
59.9975399320674
60.0408260865024
60.1044125124087
60.1913874604542
60.2267870832851
60.2226572384906
60.2481266738267
60.3306882841241
60.3961276855166
60.4657297823543
60.536592171237
60.5899713355972
60.6151545887541
60.6571506168053
60.712744015707
60.780369046736
60.8091368566378
60.8720176356956
60.9494893171778
61.0032274554666
61.0252889898053
61.0630229352513
61.1056128850418
61.1564383397993
61.2293481400162
61.3054774022326
61.3494904843741
61.3866728808138
61.4125118803345
61.4806016446163
61.5282074269555
61.5662657519543
61.618839254385
61.7233435695338
61.8190899911673
61.9192786798387
62.0083570126876
62.0795862050895
62.0950919966271
62.1220963113893
62.1851988211319
62.2321805203917
62.2655860362707
62.3131834219381
62.3375328278784
62.3516782394323
62.3851927546491
62.4886440657244
62.6171094250436
62.7693390400532
62.8479571786022
62.9003619735401
62.9587499292118
62.9792278617448
62.9647546680789
63.0070838918796
63.0426517185331
63.1179652804979
63.2017362615851
63.2774601293152
63.3114821811782
63.3259632947088
63.3440112188535
63.390880068762
63.3949954398291
63.3659272207182
63.4098948956804
63.5203453200986
63.6065823351206
63.7077779130829
63.7999415615437
63.898677551379
64.0285242598578
64.1534276604864
64.2643950485483
64.3432892857056
64.3777778967636
64.4183401648587
64.4246784789825
64.4327220455115
64.5207989450301
64.6493474461396
64.7262258169774
64.7698107136481
64.7856889719579
64.8084983322693
64.8187346351925
64.8210048510498
64.810895372782
64.8511221260788
64.9764621241013
65.1282663259047
65.2140663735925
65.2405712274437
65.2447808163709
65.2725106211574
65.2806112878405
65.2653317179631
65.2443400758952
65.313200910434
65.4466948509049
65.5607344148363
65.5755350783723
65.5924818572487
65.6262076161156
65.6572356300781
65.72835408438
65.8452614928679
65.8969379906568
65.906225998284
65.9586973241882
66.0310934972499
66.0894360543124
66.1863246492123
66.3283577512771
66.4407535419797
66.4843618504549
66.5264618847058
66.5525998890546
66.5378586413104
66.5373365957388
66.5658872951407
66.5555810818331
66.5481533748696
66.5897859746845
66.6990884750075
66.8503806840455
66.8956867358705
66.9144248626344
67.0169453605781
67.0915455304518
67.1343735274646
67.1386926536994
67.1167239881493
67.1141221460048
67.1313043202393
67.1382054810339
67.185644561933
67.2889064457589
67.4043708915177
67.4336821391349
67.4433490834527
67.50571310418
67.6005602551706
67.6599844941859
67.7155101698717
67.7284621692414
67.72708103036
67.7884754863759
67.865319614708
67.8959437776634
67.9632519928703
68.0695365262857
68.1922208303047
68.2944113123889
68.3448791714518
68.3485134332212
68.3629911070374
68.3669746477577
68.4137812154799
68.5065654032764
68.6183575644204
68.6913869459791
68.7054056261646
68.7426067324247
68.8545023235451
68.9461468157914
68.985855713766
68.9961076305723
69.0035996242997
69.0714075847593
69.1980725424018
69.2784767282205
69.3171481757602
69.325497152898
69.3492207795664
69.4050302538151
69.4716633839426
69.5428247066864
69.6482805431047
69.7120835764568
69.7889697018496
69.8939164447599
70.0089918987722
70.1141180460601
70.2458407904691
70.3729718992946
70.4782992191848
70.5337018530213
70.5530127345083
70.5865738136094
70.6173989754756
70.6209960083387
70.6538670045809
70.7014054712534
70.735100949409
70.7495546711649
70.7432305677118
70.7387723805457
70.7777247043795
70.8250698461293
70.8487475065159
70.8256131342444
70.7861091376606
70.7614058564035
70.7934692782735
70.8457326816643
70.8479186657001
70.7989924916092
70.7536517354005
70.696218632467
70.6652048327898
70.6470881744195
70.5945539256005
70.5196371109244
70.4870987381834
70.46354492917
70.445711178071
70.4329181929779
70.4591119443843
70.4860309948357
70.499397440339
70.4662500007633
70.4582080181567
70.4711488077689
70.436542301843
70.3702960651692
70.3393113782016
70.2943224252289
70.2131986922165
70.0998768773064
69.9913761314794
69.8642964291836
69.720221531606
69.5689364745335
69.395386462615
69.2007722042
69.0544812093531
68.9245236612664
68.7604760827062
68.5605565265541
68.3780944683958
68.1891657838071
68.0265290558952
67.8598364911717
67.6682175683477
67.4792270502358
67.347881262229
67.2692700597002
67.2017572172968
67.1237671498135
67.0349981216031
66.93552222555
66.8659064945164
66.8370457178226
66.8225056938132
66.7909005234033
66.8257028618828
66.8617281843409
66.8740513766372
66.8715697993449
66.8719296164767
66.8681388958722
66.9008765101697
66.9371620068536
66.9676601411551
66.9915744666571
67.0359465595947
67.0949058871389
67.151413257486
67.1985360689479
67.2670746165909
67.3716346752626
67.5185402787944
67.6253782667378
67.7271816820079
67.8539300195513
67.9863301474651
68.1001452294039
68.2154641391742
68.3334797438668
68.4606340374256
68.5726633471554
68.6648281595249
68.7727526168311
68.9259472809651
69.083070052371
69.2592893204617
69.428370213933
69.6029177160301
69.7877191867467
69.9642955326566
70.1214489037353
70.2972030148742
70.4636007478971
70.5966643866976
70.7153577076036
70.8424654325388
70.9520406845008
71.0646547003039
71.1988272803587
71.3506614793671
71.4927963956875
71.6242843201251
71.7315726154067
71.8304385871279
71.9112729071956
71.9874670078573
72.0795599382059
72.2279692775494
72.3712062633615
72.4851114709646
72.582769710099
72.6648355833889
72.7225224804429
72.7640101899898
72.8039903326479
72.8597845131006
72.9090853391254
72.9438533874393
72.9621870291157
72.9923749154594
73.0003030540471
73.0054401787831
73.0167990961103
73.0156671024712
72.987967844143
72.9688158086366
72.9446515819174
72.9067992280463
72.849700664204
72.8238611591199
72.8033600467139
72.8058557993518
72.8166731626247
72.8105972707207
72.804927462903
72.8036695760095
72.7915619695932
72.7783295104557
72.7779275839641
72.8002037904942
72.8428038726227
72.8866512928569
72.9016290664467
72.9332719183811
72.986243439342
73.0679328025406
73.1460275578937
73.2294502725449
73.3260661232857
73.4241137372569
73.5118036951968
73.6166265607085
73.7159841210644
73.816052270183
73.9017388218804
74.0010717968932
74.1091622235579
74.2274882644594
74.3601882389528
74.5317127432332
74.6798806199399
74.7922866926059
74.8906625130238
75.0056659169702
75.13422247289
75.2547785844341
75.302258824489
75.3553656533349
75.499277876677
75.6840166516941
75.8151790474912
75.9150507164798
76.0207104336157
76.1216572692488
76.1814355024262
76.2621238578518
76.3486769865306
76.4208571809941
76.4877536328921
76.5592498712939
76.6089674522491
76.6582918640693
76.7114135024912
76.7583701629807
76.8095739388846
76.8794733901531
76.9376428572232
77.002140200754
77.0557275860755
77.0973249851522
77.133188445828
77.1897287274815
77.2270003343328
77.2680662031901
77.3218053738485
77.3678188250928
77.3851763199941
77.4133690844893
77.4606124297783
77.5533075118248
77.6412764788344
77.6971267881477
77.7132822278359
77.7254122930186
77.7514390066351
77.7980104319538
77.831789829511
77.8565119472205
77.8534954856324
77.8343291745999
77.8139931416377
77.8795248195322
77.9903950691596
78.0413301191477
78.0698348316523
78.139196470554
78.1672835650488
78.1589913836474
78.17529361714
78.2352690532716
78.2441665399915
78.2893226566122
78.4054238160779
78.4931069373801
78.525008822721
78.5253678951151
78.5174725273506
78.5255051615799
78.5306382276565
78.5548964299422
78.5637294884622
78.5648729587065
78.5833680613662
78.6000145356495
78.5913671049662
78.5886717107407
78.6149481462197
78.7049236447468
78.7730701379581
78.8276101344423
78.8792335926464
78.9094271678132
78.9041278060721
78.8985337268139
78.8987567795305
78.8965317973521
78.8970248073329
78.915468626489
78.9183634468929
78.9243465029405
78.9346864828183
78.9384435529246
78.9520845443806
78.9736379330334
78.9751969396176
78.975392176884
78.9748867456767
78.9834947534631
79.0095256226976
79.0598613145236
79.0634734923174
79.0335571618564
79.0173581177545
79.0540444220123
79.0624200933766
79.0479982943574
79.0967343133701
79.185741594091
79.2277513440887
79.2292552594048
79.2244292969495
79.2309815012297
79.2343194717944
79.230779927201
79.2158903992189
79.2124193668879
79.2128654454585
79.2524346124089
79.284136259324
79.2883935527717
79.2857493207365
79.3019021426988
79.3114442615663
79.3086907457423
79.299404215895
79.2873976709259
79.2832319113506
79.2754469342408
79.2856012352734
79.3547219817869
79.413778833154
79.4337980962267
79.4483267092147
79.5046383255808
79.5286922317441
79.5385953650775
79.5730214302568
79.5898834817096
79.5860326465435
79.605289700239
79.6190876998767
79.635963942598
79.6706747113098
79.7035837935396
79.7195083538584
79.7496291642469
79.7923938612767
79.8500444870558
79.8961507187194
79.9387043028343
79.9777302134945
80.0187564130873
80.0445770120709
80.0895987908505
80.1331649713095
80.1627073338344
80.1793394201817
80.2176114472165
80.2627060184135
80.306025889826
80.350703463973
80.3888624196944
80.4270415548417
80.4787598386148
80.5172574006065
80.5498854497873
80.577676455061
80.6118076176429
80.6495766078666
80.6923095160276
80.7289643489413
80.7792695194729
80.8076081277039
80.8270086183764
80.8618396894488
80.894847436068
80.8977558184826
80.9268577289222
80.9782285385018
81.0359967842868
81.0905598360321
81.1429677183948
81.1956064590816
81.2594627648113
81.2942073527548
81.312627865657
81.3507824523765
81.3983827496588
81.4160671212219
81.4384283381679
81.4634773854554
81.4871212508941
81.5071908623733
81.5417200657061
81.5842369872879
81.6194317159505
81.6413591009532
81.6737488877782
81.6911635263078
81.7229907748951
81.7449866912719
81.7566633948153
81.7876033522739
81.8247256864397
81.8520200454564
81.880759146979
81.8992515826804
81.9323703916558
81.9682632288044
82.0007633444758
82.0309688924031
82.0629964642596
82.0849200876688
82.1101223052299
82.1541004012599
82.2227185083569
82.2645014257962
82.2973230777146
82.3226460401527
82.3613429510279
82.3922303338451
82.415292560409
82.4506683341458
82.4956330001828
82.5433566303684
82.6101991200077
82.6379205119479
82.6733016202601
82.7357754260865
82.7898570328915
82.8187649399465
82.850629164263
82.8652589424496
82.9028189772242
82.9563342650046
83.0021171163114
83.0498919291199
83.1008922772487
83.1313308710705
83.1835176669948
83.2211920252911
83.2404824177019
83.2648051562699
83.3132678863274
83.3504919564452
83.3865068360844
83.4096928148691
83.4546668291711
83.4953164271204
83.549555253107
83.5933300082266
83.5993814704259
83.6143499984049
83.672934287239
83.7024520391234
83.7222515448842
83.7622014048073
83.8350385638567
83.8750660386189
83.8855583044554
83.9022880958036
83.9676779529072
84.020004317415
84.0418491317929
84.0396187643684
84.068307800772
84.1065832268724
84.1650363012338
84.2259340034715
84.2567335469258
84.249732465307
84.2734182830345
84.332636157653
84.3940275161684
84.4169672869234
84.443631342296
84.468296815109
84.5092046969875
84.5193154761403
84.5395874395759
84.5734253370073
84.5949861082179
84.6075090933328
84.6624666722848
84.6960307111863
84.7048831103796
84.7104113081687
84.7479704705518
84.7743836738487
84.7988572273093
84.8124005349963
84.8157170771425
84.844608643369
84.8643595937304
84.8550847831714
84.9051059225524
84.9154914970357
84.8909660857146
84.8606895570778
84.8904338279697
84.959110872769
85.0004221699239
85.0054935702593
85.0183213977674
84.9771056350244
84.9510305250984
84.9673118538938
84.9937165185536
84.9785364433833
84.9921726199785
85.0282750248035
85.0362442319634
85.0243132818214
85.0467330565521
85.0512473439045
85.0753143728772
85.0957922335669
85.0826462304034
85.0508009324632
85.0566924631396
85.064107109862
85.0802934451356
85.0782139410753
85.0799636848347
85.0694364439827
85.0595758985369
85.060808242749
85.1043449150235
85.1212525655112
85.1080978649368
85.0955288284594
85.1264268831435
85.1047469033865
85.0811923791829
85.0847299102803
85.0806454104135
85.0894175260089
85.1251394221516
85.1021435120379
85.0888895475274
85.0821415484732
85.0851198938505
85.0872096053012
85.1225075094198
85.1284353807007
85.1125374095646
85.0970316835896
85.0891209608429
85.0576475278192
85.0601819649346
85.0977107317114
85.1235608281841
85.0878169778831
85.0972826520071
85.0960948416805
85.0710787448427
85.0530651318236
85.0333095723557
85.0120579135593
85.0526627738111
85.0783375166504
85.0612803958985
85.0339223564601
85.0393602257601
85.0499876066664
85.0936469605595
85.0912305680551
85.0532756191655
85.0251348323071
85.0235215409895
85.0197115057742
85.0498141774404
85.0761857951967
85.0875088798683
85.0600924020244
85.0901697916204
85.1215039898172
85.0984443317253
85.078554043595
85.1120753930422
85.1163639537622
85.1089833903444
85.1083675679804
85.1281485864579
85.1473899299801
85.1582893599007
85.1224871488331
85.1221557049083
85.150207761364
85.185360686742
85.1766948540519
85.1747488501719
85.1912158647463
85.2126457710245
85.1761793290725
85.1756566513466
85.1981220593877
85.2128284974758
85.2228350503356
85.254741903446
85.2337608659188
85.2115818013514
85.2176453631078
85.2387730630717
85.2507311920068
85.2745069802331
85.2496429359595
85.2402719206361
85.2481018267347
85.2648577093221
85.2752728099657
85.2856062389204
85.2844326862407
85.3349437675662
85.3540098973146
85.3503462186633
85.3570697995418
85.3690137780234
85.36615759302
85.4112667787816
85.4315655518887
85.4686186680541
85.493560299959
85.4832918028016
85.465792451468
85.4942321761338
85.5036202558825
85.5452244938378
85.580023868973
85.5908881501718
85.6101612506
85.6566376549987
85.6898049736754
85.7082579686415
85.6996493621979
85.7435739363606
85.7634007624755
85.7834067241103
85.8023776544348
85.8108967631119
85.799568675928
85.8424274646785
85.8741388497363
85.887841807788
85.8834171479901
85.9073149098105
85.9272685433496
85.9539532408883
85.9925878642233
86.0129801949928
85.9777930808877
85.9733908283819
85.9973038335605
86.0464248040673
86.0560378698289
86.0762886687699
86.0860186429532
86.083287046544
86.0885063905423
86.1144066960829
86.0994725523127
86.1225836804067
86.1616320527048
86.1955827206654
86.1655906470488
86.1611462753781
86.1928729750326
86.2089256903877
86.1695569867794
86.1762733584439
86.2162933770783
86.242709677926
86.2138924417432
86.2464677193159
86.306009127826
86.3234509167518
86.3045621855177
86.3162576677418
86.2923418949717
86.2811733228446
86.2883453817619
86.3296256538325
86.3491869959258
86.3580174346624
86.3427224684325
86.3479248169871
86.370231944063
86.3905085599947
86.3657884267965
86.3777134802559
86.3785970493576
86.3928472403562
86.4042715337705
86.4281965683334
86.433256134304
86.4203398470811
86.4029996313443
86.4338664323455
86.4565650305659
86.447779402642
86.4081308501385
86.4107769415472
86.3889731580948
86.4122917052166
86.4212600250285
86.4499796564375
86.462632396549
86.4461449668829
86.4162204081417
86.449942834004
86.447462212983
86.4465504658655
86.4744238431306
86.5879799986139
86.7033182129597
86.7592883425027
86.6836449977363
86.6947382832717
86.8130271968353
86.9130821794115
86.8365619000691
86.8812732025179
87.0031854896173
86.9887293234885
86.9298197886776
87.0011412010554
86.9761297001177
87.0263366232453
87.0708449432659
87.1519738795555
87.1872122457591
87.225093898874
87.2845749123406
87.3553675503385
87.3585072685603
87.4298133753542
87.3885726465311
87.2785103639643
87.1732987258951
87.1637865283809
87.1029804152383
87.102123565711
87.0777768314281
87.1272509824909
87.1569380009867
87.2324751170947
87.2174922452713
87.2844851081989
87.321829068605
87.3472517657767
87.3509934459809
87.4460167234614
87.4720212763973
87.4760864213612
87.3965581878448
87.3984754599795
87.4567908944021
87.5534370650967
87.5642235742822
87.5033384815276
87.5090720434156
87.5293857816913
87.5750247676832
87.458555125619
87.5285128001911
87.5940092916299
87.7386285133023
87.644438514438
87.8071120570808
87.8291127481711
87.955407026876
87.9187855052151
88.0788347035893
88.056677948739
88.1627750416277
88.1997235065574
88.2195546471978
88.2799931846011
88.3772701014178
88.4204595514263
88.4036508085189
88.4564351602616
88.5307523132113
88.5928811080478
88.6450224530943
88.6576043323327
88.7133872293091
88.7281906590782
88.8086856244371
88.8307479465315
88.8535655479117
88.9270977181456
89.0131743897702
89.0165582336875
89.0488896805671
89.1049051012401
89.1395856705695
89.1511677158833
89.1993386517602
89.211030617053
89.2266275260115
89.2623677405687
89.3647451319187
89.4489440771997
89.5159233063274
89.5563410602443
89.6442787342578
89.6998993299158
89.7306411918701
89.7786725471679
89.8529973393242
89.8916484121579
89.9495975413251
90.0188113046786
90.1245020397743
90.2175740907027
90.2988357789083
90.3835047363459
90.4582529711629
90.498673052182
90.5634215902419
90.565527891039
90.5779345033839
90.6163407448977
90.7428252599643
90.8258676574162
90.9035327192758
90.9844102325075
91.0529902359272
91.0906349492796
91.1176524682369
91.1788711573002
91.2438328107828
91.2355414356128
91.2448523847194
91.2745440878298
91.3833097865986
91.4952247298986
91.5713389880042
91.5838577086255
91.600952919509
91.5971007318622
91.6435887034397
91.7273411863041
91.779611308671
91.8025519265328
91.8864148273745
91.9451691641109
91.9021466644293
91.8850638130156
91.9278399247147
91.9865892504078
92.0308483976486
92.0473772767328
92.1143676257592
92.1886338801661
92.2566566044683
92.3006774603968
92.2939412831013
92.3436890716502
92.4527541587329
92.4651056765016
92.4965966284816
92.5895215958113
92.6343364274462
92.5579166390243
92.5103514080448
92.6464346834555
92.7942709095783
92.785985333175
92.7506884860137
92.7438756761111
92.8341660913875
92.9448032822318
92.961235289435
92.9276053263449
92.9129796615636
92.9366314341096
92.9948047861542
93.0766365847233
93.1378605982781
93.1259029583822
93.1456346879602
93.1588655263469
93.1654517057235
93.2440451337377
93.325296798946
93.2897056962246
93.2483565479868
93.3201839859426
93.4961879854353
93.5320126528556
93.5118774780024
93.5732314110857
93.5196810129869
93.4692452942848
93.5813169615358
93.7250329394818
93.8169131181034
93.7967669381559
93.8366046500902
93.9709625588579
94.0340476080255
93.9706982101138
93.9050166000948
93.9031946571764
94.0318771344785
94.149120475333
94.255496850405
94.2687985224978
94.2624191487711
94.3360028361359
94.4764475307867
94.5387305158534
94.5103654658034
94.5799461736824
94.729975665508
94.789068093542
94.8114347302503
94.752814070482
94.7412334375445
94.8165234098845
94.8628300611319
94.8615839282388
94.8220016339952
94.8188158315012
94.8641697829042
94.9731877151413
95.1475218704086
95.1718554770337
95.1965422490713
95.3878654892154
95.5316859383057
95.7388542142308
95.7447344418785
95.8464945619968
96.1157331225495
96.3562728483799
96.4628160831465
96.4199790231525
96.3063205253857
96.1531471597182
95.972650196089
95.7255393611975
95.5747717311818
95.4309277538516
95.3230734792022
95.2115367504155
94.9370526553068
94.6519919118949
94.4687357374812
94.2893200827702
94.2149204589273
94.318951051367
94.2661774708597
94.0217239914306
93.8364024040907
93.8550728773573
93.7910265390201
93.6976311131696
93.6718797385963
93.5983875807097
93.428503207761
93.3003278800629
93.2042250689096
93.0898771920575
93.035247803311
93.0057577317319
92.8993701925636
92.7597085367567
92.6745034536512
92.6187419669657
92.530112983901
92.394854921472
92.2719535165099
92.2144982589123
92.2529850282711
92.1910699851172
92.1428284459305
92.1622482886983
92.0959823891162
92.051919998242
92.0584976774315
92.0119044644495
92.0109685472414
92.0345474801946
91.9817981102446
91.9634199406044
92.0282412251734
92.0606083390637
92.0657236701275
92.1182625044293
92.1544305157749
92.1027676996305
92.0694643214575
92.1310529519884
92.259433155768
92.2566071871149
92.1852175068922
92.1683715833557
92.1732262245389
92.1961832355035
92.2437741510156
92.3097579991481
92.3362251219883
92.3652942715264
92.3470522407113
92.3050333673348
92.3138714173487
92.3620392222894
92.4166403174714
92.4139916651894
92.3208302445895
92.3173097599049
92.4417942978434
92.520673710793
92.5332913992234
92.5196402983218
92.5635142757728
92.6328242379469
92.6448863061865
92.6479579722379
92.6884627983041
92.7409707160546
92.8089594111625
92.8644723487313
92.9257216981692
92.9683024069999
92.9703123949017
93.0280263569007
93.0485412815475
93.1262419852517
93.1962574291627
93.2238709292423
93.2183653217813
93.2502110825516
93.3543545176309
93.4133084413746
93.358949335304
93.3328794126853
93.3966312879553
93.4762815670892
93.5524453166573
93.6021087043631
93.6241003296537
93.7215477087615
93.8236092662087
93.8689944599696
93.9486985483355
93.9688921118098
93.9798029250252
94.0117905623734
94.1023090697981
94.2696320425582
94.3750841097826
94.4042653359914
94.4542479253905
94.5853424793968
94.8064099718221
94.8977145115635
94.9805916675524
95.1349416700621
95.1748956200828
95.2098518308039
95.355336522296
95.5085927595544
95.5160772717358
95.6488167148627
95.8904647191885
95.8800412343933
95.8579655495056
95.999683426988
96.0880443294354
96.1337505996814
96.2027679451306
96.1984106582338
96.2117291598673
96.328941882529
96.4025800035784
96.3657035518612
96.3742642297623
96.4486202625338
96.4320071475805
96.3721492379358
96.3196752962182
96.2598506652851
96.313960857738
96.2991580954407
96.2268246183533
96.2514399679254
96.3539340882311
96.5142621376027
96.3785906962066
96.1815784689649
96.1771898887637
96.121667924838
96.0667134545236
96.0579774077686
96.0209136767977
96.0709446733726
96.1366589954074
96.1137845747361
96.0211543480951
96.0153306746394
95.9771871355894
95.8739197947352
95.8255970199825
95.8088148749357
95.7481261284909
95.7058619067402
95.6873304314187
95.6714999445219
95.6230994411324
95.5070592371708
95.438420677106
95.4874367662379
95.5532372136273
95.6142547590545
95.5296291653338
95.5274641699552
95.6115747813354
95.6342280639316
95.6073440421875
95.6125515188457
95.6976799339886
95.7565809057942
95.8101424112972
95.8233102674074
95.811878056492
95.924392479369
95.9436721328727
96.0200255251935
96.3554872032872
96.4778813248656
96.4017882855966
96.4806472431471
96.6248209425434
96.5482804460525
96.4115967088105
96.3748277566028
96.3961623454036
96.3938320163101
96.387120375843
96.3971025803103
96.3004662795064
96.0809675735465
95.8309281991823
95.6934461335569
95.7197871340211
95.6426479358132
95.5370584589451
95.5162246973466
95.4460062174335
95.3172722376423
95.3612778667216
95.38384492478
95.2925117673809
95.3015550940925
95.2020278675289
95.1031800864052
95.045386962966
94.9780823534575
94.9500480840381
94.949065308667
94.8590657845307
94.8448818283481
94.8840896000703
94.8215238855679
94.8625429055014
94.869224509163
94.7688567612819
94.5583854338094
94.3809528340035
94.4951332489841
94.5537335985129
94.5080701610036
94.4464064431136
94.4060294237501
94.3520472571524
94.3439392429626
94.3666985765277
94.3509136922862
94.2953597681695
94.2738382430752
94.2025690449188
94.202786285129
94.1995168664777
94.1859143169936
94.2174154806334
94.1959002686963
94.1824591421735
94.1521637871714
94.0312569071091
93.9347502433908
93.9851548784504
94.0407949954175
94.0091398522001
94.0023539579468
93.8884114205691
93.9094539041805
93.9497650566897
93.9578171408196
94.0044513802002
94.0194271943075
93.976447210494
93.938269302152
93.9291013602799
93.8732578891474
93.8823760431264
93.8378976100341
93.8449677936654
93.8894639094094
93.8786020997208
93.8513231417013
93.8648183437051
93.8683812808441
93.8409983734395
93.8230018970535
93.8641841588545
93.9078037325836
93.8820515697425
93.8254756125596
93.826341772372
93.8441572296576
93.8272677427178
93.8308228579841
93.8307179174631
93.8014299780975
93.7366025118387
93.7023061786104
93.7949223445992
93.7794451611109
93.7480681516402
93.711609478197
93.7019379498319
93.7117247711763
93.7509140482158
93.758591339301
93.7837612072979
93.7936382819018
93.7744757082029
93.7331742113724
93.7090600633908
93.7455360321763
93.7755579387527
93.7810548449734
93.7897654234914
93.8235192232125
93.8107425751869
93.7558068543487
93.5693476945011
93.4800525135143
93.5649764570586
93.601796360126
93.6592665390636
93.7198534977453
93.7893537079481
93.7450497010265
93.6842250948647
93.6465830799142
93.6970647423261
93.6809158242103
93.6762703957448
93.7337047225506
93.7610120921931
93.6972452139484
93.7048499592705
93.6852516944268
93.7141820359791
93.7270771859971
93.762325608835
93.709140591478
93.6566352307673
93.6375468379785
93.7034107083369
93.6598645633449
93.5594163236563
93.4122043214542
93.407183259041
93.5665235184295
93.6062281119479
93.6704734196621
93.6884770653104
93.6317483163749
93.587523353615
93.5719772914078
93.6009402072322
93.5890412447708
93.5346436650467
93.5930077004085
93.6647292219686
93.5798039595698
93.3894269459727
93.3119660260958
93.472407267375
93.5821741390338
93.5023034948735
93.4247093734457
93.358778487207
93.440070063715
93.5077508196161
93.5403413005757
93.5768974577939
93.5637712524696
93.531658201607
93.4759862983466
93.478776306927
93.5004337859315
93.523372515341
93.4992261972414
93.4925470479081
93.4033031030745
93.3414303076924
93.358758836758
93.3478297925708
93.3526526611479
93.3539864457783
93.352986773143
93.3604160900561
93.3563709243928
93.3061308424638
93.2454969115285
93.2587858903171
93.178678546699
93.1292754657083
93.1328200457167
93.1941208128455
93.226360542654
93.1632322652855
93.2014048565976
93.2197446595481
93.0843955493869
93.004061825207
92.846569645466
92.981652639076
93.0315067871402
93.1317623185707
93.1427844363928
93.1870657671721
93.111230430759
93.0565162319985
92.9382515482915
92.9628708673934
92.9766662336081
92.8786731019399
92.8365818619447
92.7697249909137
92.8297175794209
92.8962562235141
92.8558521916094
92.7898507857464
92.7586509334351
92.6470926184506
92.5001773193664
92.2558155281592
92.3104182558375
92.5014630060169
92.4447847483748
92.4404957943838
92.4214633978716
92.4697236495043
92.5146795172935
92.5159297694651
92.4832279872742
92.246946330261
92.0751251159901
92.1020567262542
92.1854040336854
92.2269426938055
92.0436969199357
91.8841822271829
91.8767461775023
91.8985530726975
91.8817048181803
91.8556066612412
91.6312681424149
91.3605306738014
91.2903814390043
91.081409016845
90.9658282148588
90.8015286161207
90.8302770281455
90.8417795011047
90.7700431119632
90.488937428203
90.3022620012467
90.2147948066675
90.0542870799415
89.7466548544581
89.6478833904714
89.4751849555971
89.3822237584924
89.2188989006604
88.8905639862496
88.4242280868857
87.9852392378542
87.8650426964835
87.8393400444791
87.5394918877986
87.2309237087117
86.9816463865064
86.7454352112848
86.4917200172792
86.1685878749074
85.842999978271
85.4373327386043
85.0885080948598
84.7907277413184
84.4644942945353
84.1391306145799
83.6543834602206
83.0533817267897
82.5151519263959
82.4545643931314
82.2108980649779
81.9721582727818
81.7870712399916
81.5493715554322
81.3215901859066
80.9310844091606
80.5329240133962
80.1908097057757
79.8800758100347
79.4195030605729
78.9512912964316
78.6343954481156
78.3109598743283
78.306785160876
78.1404097980521
77.7149390322801
76.835042805537
76.3799316241749
76.8861844387048
76.978429181344
76.7087841929424
75.9867277961781
75.9297359099524
76.2386357317782
76.2661955633476
76.092381336123
75.7772111392099
75.3936778004515
75.1058367664858
74.7774150045478
74.5633588494382
74.4729965584651
74.1287117924192
73.3417919837446
72.577490047456
72.7944950819619
73.6491286232167
73.756316998927
73.5004228366992
73.3598749096352
73.2532825887352
73.066870305455
72.7417249083538
71.9765801700259
71.6574901941329
71.8944861204206
71.9728034788301
71.6145025133878
71.3294244519003
70.9767432088047
70.4847726691142
70.5436164433578
70.6964749261759
70.7328316704139
70.527104837663
70.2859804781242
69.7639896325641
69.2145610317568
69.0817049520836
69.0727555671347
69.0117778338422
68.8326470602648
68.600696686444
68.3145898056366
68.0295573417812
67.4982233649735
66.6350471956307
65.4595528993367
64.9154106412575
66.4139661265972
67.1230740717929
67.1493638593079
66.6022220110331
65.9686904953649
65.4383034324107
65.0730473206389
65.4522021235344
65.6993619250396
65.6490606412749
65.440544068044
65.2260085671486
64.9886436112358
64.809169876003
64.4885110539908
64.0670659926493
63.7364121862926
62.9595154276778
63.094783080108
64.1034694187013
64.5992492245931
64.6393690631564
64.542686238924
64.4494907103398
64.313001333885
63.9259937796671
63.8291051457042
64.0695359843609
64.2723970182956
64.1454855083839
63.7325011259434
63.9407845262526
64.425801632139
64.7211289226951
64.822592455067
64.8517617119668
64.6699370646959
63.9775943635736
63.8994083912577
64.6639160557434
65.1096735839616
65.258317842891
65.2280115467373
65.1864309749501
65.0638167074067
64.8354817051937
64.7088927389302
64.5883065457536
64.4582070143815
64.3926497026462
64.2657693325961
64.0369532345673
63.7229675436659
63.4642249182692
63.1713604752292
62.8737863867573
62.5148985957438
62.1333144958593
61.6942042585669
61.2151191758332
60.6965495378957
60.1211933218447
59.5566836885446
59.0344623430104
58.4466050308121
57.8313463138263
57.1725751358141
56.5058533589711
55.8098955342958
55.1158897982797
54.3787837923242
53.6481771109265
52.8901423657809
52.1331774760242
51.3511466902514
50.5905447180329
49.8087642913991
49.0302130134783
48.2051429669324
47.3924844943069
46.4576930060808
45.4117915263817
44.8529960515633
44.4424643340629
43.8227635513762
43.0444423786824
42.2564152128463
41.40154116596
40.4106936970217
39.7652248320936
39.3127298015253
38.7814703819471
38.0806374572748
37.3020812367639
36.6868736190121
36.1729616898616
35.5645195352816
34.8230932570508
33.7338991431123
32.6852298280285
31.947259288818
32.0876496104023
32.5734345914476
32.4549806558159
31.7808450039793
31.2724126204716
31.1281183119824
30.8709658594997
30.3821105482962
29.7487975054516
29.5243506060934
29.5626432572973
29.4519247319474
29.1423257492985
28.5910236052314
28.3790334088385
28.4540942954706
28.1742391246013
27.9632436911466
28.0068848241072
27.5459829253078
27.7228054613598
29.3565399498623
30.3249913491224
30.4946190790467
30.3988211356826
29.884032575334
29.6039471325012
30.4129894587895
31.2155555108458
31.8587736162345
32.1801864588679
32.1630645069355
32.2152103371313
32.6223675725411
32.800688275083
33.2458628428082
34.3103844215017
34.4967440241376
34.1564786189862
33.8111271221304
35.0740089107591
37.2838671619571
38.0257285400424
37.4208705552338
37.6262117945507
38.8180543678931
39.744395666588
40.4383897644744
40.413787905099
40.5092356128588
41.171110417175
41.2406557691784
41.1546321827662
40.7659164516464
39.7728453270785
39.395975376777
42.1472997551321
45.4691818273612
46.6751717166522
46.7559379476889
46.648685192772
46.7141955928317
46.5477452607599
46.0268502794152
46.6527243533436
46.8679394963662
46.7676798722533
48.3246794577569
49.5747766209053
50.0604258843466
50.1820885287673
49.7145982762889
48.9133692836445
49.0376991341616
50.3088949003585
50.8775197534522
51.4084211818974
52.2866398842378
52.7833560112683
52.9507524208097
52.9616115767102
52.8198220119652
52.6737610341864
52.9128019877738
53.2283451126374
53.4069201938814
53.2920523633746
52.6544271750932
52.8438294409203
53.3487680317402
52.8071115544084
52.2837179237674
52.5415664761164
54.0232219505091
54.8278014031848
54.8919932362434
54.7237181594936
54.4652897512494
54.0858457901725
53.2159838909258
52.9109940477353
53.6590037513765
53.9656070616994
53.898151306227
53.5951374414324
52.9574007693775
51.9498231579897
51.0106584327208
50.0088649157209
50.7239832394844
52.098553957036
52.6012919409204
52.493153581922
52.0329742179078
51.8380615294972
51.854829918767
51.8412312763148
51.4967396812121
51.4091545115114
52.3125314193209
53.0408103097938
53.4692024929493
53.785576060326
54.0424311343794
54.2674337121829
54.502805449686
54.789400883788
55.0960045030997
55.2665218686286
54.6273502564073
54.0073425039026
55.836258352268
57.3345639258682
57.8745802981901
58.0887202060007
58.3294227154565
58.2628058225853
57.8731591094914
58.0112303795463
58.298545690934
58.2650582394757
58.0061764701935
57.5314476781778
56.7399367623458
55.9465215857945
55.5489621601745
54.8989199753409
54.003921208004
52.4875620231141
51.249029502671
50.838655950291
50.1190287301987
49.2921684934029
48.3508922503541
47.3186796305621
46.2247326405035
45.1311019527394
44.0855306720735
43.1893962736867
42.3259689478758
41.5388828224597
40.7622690176491
40.029740061629
39.2019646862319
38.3199039911642
37.8392004267524
37.4446153575925
36.8547320526472
36.2050075057422
35.4401214041842
34.5454314139973
34.0264113667808
33.8573423174335
33.5542194794721
33.0276167382708
32.5437731084206
32.8315928931112
33.2945283961682
33.407128703675
33.4625732163915
33.6395252598063
33.8158790229363
33.6747110615956
33.7376836320798
34.764010314167
35.7616118588122
36.4373906656264
36.9573557933482
37.5137328461131
38.1184140597743
38.7788619011211
39.4297121777573
40.1540297699453
40.9291416893404
41.8205454585692
42.4261916190438
42.6757426146626
42.9841588018261
43.8996704991139
44.9941336773045
45.5883316125352
45.8794705479687
45.9487898467302
45.9582678084772
46.2640991729103
46.6101598262749
46.8361863288067
46.9620112206615
46.6955297460729
46.3547716641445
46.8879052324299
47.4071486461206
47.9854598205286
48.4373639352425
48.592997859309
48.7345372819119
48.8919171274274
48.9604685516504
49.0712556471705
49.3622014717526
49.620353345412
49.8075224066735
49.9617316192661
50.054012344394
50.1571115423182
50.3252021154248
50.4543246619354
50.5245857163449
50.5850574377105
50.6194861968902
50.6754634026642
50.7260275636023
50.6634939650252
50.3354823782695
50.2137676876326
50.5015105518552
51.0088862205216
51.3272660879244
51.5516410557187
51.8004875937349
51.8679284322586
51.9095544538765
51.9634309616447
52.08131917085
52.2052501434804
52.3630723345586
52.5223050473736
52.6745557295378
52.7995292978071
52.9200934897829
53.015249598533
53.0998802022237
53.1728726788883
53.2676327904657
53.289268339081
53.2742786956789
53.2335464621863
53.3658889174256
53.5305344917892
53.6550371866619
53.8120396617219
53.879013643617
53.9486917030199
54.06492061047
54.3313753410661
54.628921528805
54.8494459831361
55.0217800509164
55.2033100018487
55.4579774271327
55.7071200898221
55.9247551608363
56.1429768201605
56.3543181734527
56.5504901681535
56.7480691378114
56.9251375068239
57.0796651495431
57.2115647873168
57.3236183466525
57.3993111729103
57.4841595583163
57.556361191942
57.5621042458908
57.5178798311762
57.4477254552366
57.3487889862763
57.2290387577465
57.1103167459115
56.9545471371574
56.8009076587104
56.7114752848013
56.6257403592566
56.508971680123
56.394274892112
56.3091903723629
56.2448385369794
56.2077184837535
56.2199364350128
56.3030802962422
56.441213498392
56.6077839930545
56.7922458048434
56.9891004864553
57.2036313407904
57.4226521817093
57.6145886913056
57.7893844687997
58.0317871057811
58.2678047985771
58.4780917621988
58.6671368807249
58.8269086161863
58.9510429233177
59.0792460633004
59.2009318641126
59.2987387790504
59.4001224189075
59.4838151126899
59.5428376841638
59.6620864469765
59.8269257323466
59.9592948602631
60.0747027641222
60.1846350181541
60.2978873983915
60.4024122650513
60.5051204512826
60.6004206183021
60.6885019595042
60.7636942345144
60.8299866553493
60.8896689751912
60.9547187638439
61.0213487199198
61.0969998585684
61.1731483539547
61.2666448326202
61.3809761881025
61.4818377724395
61.5737821018918
61.6677118835874
61.7575585006224
61.842343479178
61.9151627964669
61.9795488921238
62.0332649084093
62.0895509142526
62.1546408728718
62.2249373042239
62.2998772418551
62.3666474340979
62.4243767526445
62.4909171722418
62.5492650463576
62.594738579123
62.6249789649971
62.6556730994674
62.7080201668525
62.749226877294
62.7624661181066
62.7752985213417
62.7925071219622
62.8123459192887
62.8295888047964
62.8504781967417
62.8501854053924
62.8112438727958
62.7368414634407
62.6479132669613
62.5304179444801
62.3946476361318
62.2617698400049
62.1031925381119
61.9087052580266
61.7049168809756
61.5022247040508
61.3147265057714
61.1529069898954
61.0288969808813
60.9464497172499
60.9058974679431
60.9000182923453
60.9190025308877
60.959705276856
61.0354853220191
61.143598259832
61.2849103304397
61.44167855529
61.6102473208293
61.7925171980111
61.9793450375564
62.1645632720106
62.357299899568
62.5475409545267
62.7225214568322
62.8787754605429
63.0280138964529
63.1649827003537
63.303283383653
63.4309334168696
63.536250510475
63.6302646527443
63.7131738678537
63.7734887330508
63.8160935322541
63.8642551496402
63.9110699584386
63.9373456192057
63.9482294147399
63.9419056192909
63.9102712947207
63.8633538185495
63.8059858280381
63.7148370551465
63.5955040760599
63.445307572081
63.2691925627807
63.0714865673023
62.8569126984991
62.6386396599717
62.4267160930558
62.2260707310533
62.0537801646805
61.9212568513677
61.8411579789072
61.8195826274235
61.8696869872252
61.9935475332534
62.1788590120218
62.4096490336415
62.6824226021536
62.9721988377782
63.2681903048402
63.572581288897
63.8803556664168
64.1811354558861
64.4748886643484
64.7449122878432
64.9761379616405
65.1813624493557
65.3565157403446
65.5133261178306
65.6637052898364
65.7981278334915
65.92106279471
66.0381993370365
66.1419187509636
66.2323727888074
66.3185747288129
66.3978773012344
66.4572874966846
66.4841056864063
66.4811981897028
66.4541903317143
66.4009406048181
66.3247368572426
66.2399742714106
66.1528018166505
66.0625694911052
65.9494502184193
65.8115070119026
65.6603518610395
65.4854372637702
65.2876587281949
65.1020278285075
64.945586388947
64.8269979106512
64.7366002918267
64.6704349234169
64.6207033527289
64.5644529815945
64.4904177766992
64.3912191589952
64.2436360830292
64.0528765669362
63.8304754122884
63.5960182246987
63.3730098902299
63.1912550210381
63.0729359976985
63.0309863953761
63.0411043232131
63.0840574150794
63.14905625131
63.2297707139875
63.3204031364499
63.405142127981
63.4778295989242
63.5633195669498
63.6704752635312
63.8017945411103
63.9558777393982
64.1245374037347
64.2961575581486
64.4649164263143
64.6208863355105
64.7645359421512
64.9031025143084
65.038404184538
65.1524228623236
65.2346679539444
65.2853130269605
65.3184492134735
65.3391090389872
65.349926401421
65.3487291951351
65.3469425570152
65.3401321483716
65.3225619896346
65.2899506378784
65.2473373275367
65.1775805042338
65.0621176201527
64.9142526702503
64.7437621049258
64.553503033351
64.3609537915865
64.1747467710371
64.0073878290915
63.8582903550822
63.7130707848097
63.5643751582241
63.4089256516346
63.2491627543493
63.0853588245617
62.9032577198688
62.6844098746582
62.4396223755114
62.1787268578303
61.884236621319
61.5684740068046
61.2288826589523
60.868284057496
60.5023340241959
60.1714338235109
59.8938192562769
59.666655819221
59.4864943350579
59.3535729811809
59.2535386737522
59.1743544919327
59.1111589449123
59.0728260152604
59.0813998516073
59.1304609528784
59.1986446263246
59.2947334041976
59.4126234021535
59.5436936676383
59.6950682065807
59.8600579597504
60.0161963639514
60.163461203262
60.277680528699
60.3432732523198
60.3517304031555
60.3074236462535
60.2140067416576
60.080831443244
59.9163967080604
59.7246539758106
59.5134515643915
59.3139333813069
59.1454385748459
59.0125739443976
58.9181593245307
58.8528366191575
58.7984996530864
58.7654150641206
58.7595106232608
58.7746722930288
58.8045683967106
58.8553431530199
58.9177933250568
58.9871603967491
59.0535733155785
59.1283088575797
59.2221879713824
59.3159988406816
59.3932373178135
59.4699539951065
59.545395396407
59.6106580926371
59.6588079644914
59.6914584894493
59.7318487165424
59.7911288873625
59.8494098207652
59.8954824038893
59.9245633016347
59.942314895853
59.9477014927011
59.9506677272817
59.9550886343032
59.9419930240965
59.8955693522793
59.8337413313391
59.7595626211963
59.6871101757012
59.6232746160545
59.5765815705979
59.5596296675096
59.5651659967559
59.5792856840529
59.6208463348974
59.6954759153783
59.7807484328799
59.8727081966246
59.9667246564346
60.0575252093319
60.1427698882181
60.1947167956029
60.2142687911987
60.2018514268613
60.1558550208527
60.0902107441142
60.0304752355726
60.0039244018104
60.0368302152866
60.1162224275224
60.2341902994926
60.3822042344597
60.560624178623
60.7581587673769
60.9550756249515
61.1470189202067
61.3392115544488
61.5250019872332
61.6946170924541
61.8510717174749
62.0138715862243
62.1688863314312
62.3093658658954
62.4409166799622
62.5727221318421
62.6815201973694
62.788285634162
62.9152118475242
63.0433811465847
63.1604657188864
63.2648086753299
63.3659834344858
63.459683636234
63.5560185204107
63.659885348972
63.7543015242125
63.8321440752719
63.9033778592979
63.9919346040382
64.0732829309341
64.1635693901572
64.2756470432938
64.3873758258899
64.4895145209246
64.5794664458648
64.6633942171834
64.7603603329317
64.8549164004144
64.9255659610429
64.9924243287533
65.0664294102494
65.1315856687332
65.1952063627021
65.2745490327389
65.3564127633798
65.4316919067025
65.5289235052433
65.630774251016
65.7231347845774
65.8214365617033
65.9339811126734
66.0461846703163
66.1555780386858
66.2567896773582
66.3449742678239
66.429280018358
66.5164559608075
66.5958731378333
66.666504505515
66.7383289396347
66.8210999872651
66.9042839161065
66.9841517244174
67.0651922140673
67.1378780632696
67.1931131013257
67.2496725670112
67.3129297225642
67.3821675303911
67.4372452389143
67.4659711488735
67.49476797263
67.5296654066743
67.5497491390004
67.5683248679499
67.584475293566
67.6115084908658
67.6535375223852
67.6848139870145
67.7001926719177
67.7099274497958
67.7185961574371
67.7276071039725
67.7301378778474
67.7246963469772
67.7235097801392
67.7211081333723
67.7112655633787
67.7016119247058
67.6776328562589
67.6656673698922
67.6729742330128
67.6645250699396
67.6371287916562
67.6220614945398
67.6291046276663
67.6418070330884
67.63077889513
67.6234523197829
67.6304331862943
67.6417220326421
67.6339598406903
67.6179639474381
67.6188731094623
67.5970834053879
67.5465131043377
67.5127994937957
67.4787700450485
67.4423867665478
67.4101802356489
67.3733670493189
67.3335247427977
67.291216353567
67.2405450694693
67.1927051957511
67.1459777317536
67.0956849445759
67.0490650833855
67.012700252031
66.9625484879125
66.8856160442712
66.7962211144302
66.7381481485632
66.697463938424
66.6366969360304
66.5682422559602
66.5086285515604
66.4509736601749
66.3795032279582
66.3032491116407
66.2409325036851
66.1811177248185
66.1244061118212
66.0709763851016
66.0022251719714
65.9193544177125
65.861840160074
65.7834066726489
65.6732897976621
65.5724194580341
65.4862907917025
65.380976631774
65.2585110173671
65.1519112488635
65.03250319899
64.8673904046041
64.7052902769799
64.5498709943921
64.3539886127151
64.1469425297463
63.9334440195648
63.7040865170864
63.4838923658394
63.2556647497794
63.0236326053375
62.7994039302157
62.5801163544677
62.3260183261867
62.0476364328814
61.7838787691547
61.5368723699203
61.2810223416406
61.0116740222067
60.7378023096089
60.4552234831828
60.156288913331
59.8552652133886
59.5621692706596
59.2661897427854
58.9711017831846
58.6801745259122
58.3858339499937
58.0809658230213
57.7787647694304
57.4912566137362
57.2116969108265
56.9776072218715
56.7621299315995
56.529589248185
56.3337033436199
56.1942407626152
56.0560316148509
55.9172507874715
55.7816108310932
55.6507665668752
55.5261265485866
55.3907154966619
55.2580019626964
55.1487257283797
55.0489140829921
54.9338638526211
54.8357179133105
54.7374653027703
54.6242085310909
54.5158423679834
54.4111887393422
54.310005129755
54.172312038266
54.0433965326534
53.9614373497766
53.8669261462886
53.7576328669466
53.6635505583901
53.5681581143724
53.4948789565601
53.4494220148974
53.3648259484197
53.2773681866912
53.2351873818605
53.2155268811309
53.1937184271856
53.1313181914417
53.0470222182851
52.9913433534013
52.9524187308759
52.9069801387045
52.8395814507104
52.7474506694095
52.6518095350805
52.5309416395371
52.4096902935298
52.3162713006415
52.2138693052402
52.0946892772455
51.9474146121646
51.7624941086567
51.5828092572271
51.4532984538403
51.3080702947209
51.1235404984527
50.9353985705171
50.7825196087848
50.6398080887461
50.4864327995873
50.363308065673
50.266041216265
50.1597383131381
50.0622054849095
49.994169161708
49.8968300758317
49.7928689904797
49.7763907256899
49.767428250191
49.6998164207737
49.6192964988244
49.6069514704386
49.5939603850436
49.5286880433765
49.5120088850446
49.4886293799986
49.4682670081361
49.5149057061691
49.5556966389393
49.5500307486048
49.522695772732
49.5195194644137
49.5279982131787
49.533801041811
49.5214054367447
49.5012109201769
49.5411023077119
49.6040331353817
49.5702009174089
49.5233126400519
49.5273393242345
49.521831339083
49.5048341375023
49.4961488597058
49.4613033444331
49.4032407755664
49.3763071584619
49.3365551117017
49.2721550958175
49.1818780295318
49.0627627289486
48.9710590482764
48.9076036085883
48.8484150102977
48.7150051953469
48.5544047605172
48.4034965271484
48.2393621897501
48.0496578654241
47.8888575736699
47.7630462620748
47.6002868329325
47.3821672075675
47.1554763241528
46.9960237185783
46.8629290490869
46.627720326566
46.398921027125
46.2116480759848
46.0214859942963
45.8416258715344
45.6473535320195
45.3674888747798
45.1008451208582
44.9372436067364
44.8466088656822
44.7314937540749
44.5386945148702
44.2827595643013
44.1232524922311
43.9609038677091
43.7654590249488
43.6026492588977
43.4959897429977
43.4091568304359
43.2706759135357
43.0770756278505
42.9219857723078
42.7075866961383
42.5627865333075
42.469848089439
42.3742176703659
42.266517123521
42.1184152645996
41.9614613746804
41.915739427646
41.7994987892156
41.554160976901
41.4208795934948
41.3191244133587
41.1053240380872
40.9347340232482
40.6865352694287
40.4775853472233
40.2783314205462
40.0646486379753
39.9657115860277
39.81194162115
39.3598285142158
38.7516684633878
38.1957969853134
38.8436913271105
39.4408511192569
39.0252631846643
38.4271488846529
38.1561052683061
38.0576640814944
37.9692282296659
37.7753949647932
37.5198327375752
37.2708588551192
37.2908026862078
37.1086129049616
36.8885998716436
36.6520242030383
36.6436168903814
36.608324503825
36.2850349438545
35.9787223497331
36.0174545431942
35.7711215633853
