3596
4000.36533379555
650.420452594757
1
128
2
98.421927335785
98.4212853205922
98.4647938480774
98.453511214382
98.4402802900912
98.440931577461
98.4339068858835
98.4142310005781
98.4315372629598
98.4308056711643
98.4258768084038
98.4612197712542
98.4735750974209
98.4667687656249
98.4899383062117
98.4641270634241
98.4843187648478
98.5038889310596
98.4791573042627
98.469657057205
98.4471595659383
98.3908795797848
98.393880308553
98.4213573549396
98.4421291149861
98.4226939606967
98.4331189722572
98.4800600609319
98.5015237573032
98.4502508967228
98.4200893272847
98.426240802212
98.464448460259
98.4559665145626
98.4429868412457
98.4964618174865
98.5043643490346
98.4467244645989
98.3878135341931
98.3825356099138
98.4329981353486
98.4403092191268
98.416585860824
98.4274662115284
98.451217514873
98.4547125893083
98.4669666186712
98.4560148232464
98.4489912565503
98.4558923951354
98.4628613939118
98.437722427975
98.3667108728381
98.3685758763227
98.4015018834483
98.3879933631927
98.3867619551871
98.3975756478383
98.396770701946
98.3873547568032
98.4372803053989
98.4778665168894
98.4342331243253
98.4247831360787
98.4503565999902
98.4761102642506
98.5041151827855
98.5105827348967
98.4577643160953
98.4506731003137
98.4102261880306
98.3431395012202
98.388460556822
98.4374258735664
98.4354493312751
98.4621138501129
98.4777836230916
98.4573596692208
98.4174577584004
98.3875767284566
98.4192674944588
98.4184220244521
98.4185368869468
98.4522865209286
98.4358187235667
98.435628245229
98.3763755688226
98.3250438684085
98.3873762309961
98.4524116767738
98.5040900138428
98.5116761351601
98.5107585506505
98.5367399849508
98.5574348159404
98.5743893903905
98.5507666004554
98.505006192338
98.4409526286894
98.318970017944
98.3058971654187
98.2777302467092
98.3499452401699
98.2744276629816
98.2253148361472
98.3093650706048
98.332314453967
98.3831311094913
98.4198926045472
98.4757204892083
98.5172477337932
98.5082036002743
98.450650365429
98.4986379385493
98.4514528008454
98.3612368813393
98.4406788294453
98.5245024747436
98.4911303322688
98.4043801366652
98.3408092516763
98.3350351625072
98.4264521792511
98.4490155576236
98.4546187904017
98.4240067456833
98.3426479572089
98.3772623666146
98.468651370802
98.4606243194542
98.5203207327676
98.5344813502181
98.4655704318507
98.3754013432052
98.4391446164577
98.4686681732017
98.3985343290605
98.308925506653
98.3092894828601
98.4244412904746
98.459837941121
98.4460104323011
98.4115528712946
98.3516484361453
98.3769120337673
98.4117479647657
98.4246489811009
98.4504606175723
98.5481276978493
98.5696756119822
98.5456224167714
98.5443558351348
98.5456896975214
98.5502132347312
98.3872372319488
98.1604429073804
98.1503398960921
98.1787954920267
98.3347089672819
98.3561679153871
98.4446287357615
98.5699632406223
98.6710345127169
98.6348126886248
98.5182783209168
98.5258115382067
98.5001210930704
98.4706588184841
98.4501701195033
98.4120168769674
98.3832815750092
98.3416377898212
98.3090433213337
98.3584821134219
98.4008217846341
98.4039652548831
98.4497857082124
98.4442901941872
98.4551745566668
98.4725199352771
98.5456210498458
98.5747077197752
98.5702901729111
98.5420873817103
98.5077865903312
98.5393169173508
98.5804360294321
98.5704205763483
98.5864267177721
98.4580143039024
98.2761999540012
98.3099753886222
98.4966377597024
98.5184681357465
98.4816351014313
98.4025340475445
98.4074583001024
98.5315164621555
98.5843880153383
98.6008209610242
98.6052425020921
98.6353183754393
98.7015866933988
98.6587312068584
98.5630666300593
98.4787443719482
98.5234398367859
98.5831575332826
98.6225277954378
98.6034157430056
98.4581273889979
98.3439909814037
98.3931838160758
98.5121188268138
98.49236402222
98.4712038608591
98.5085568174582
98.5367460166734
98.6310065848173
98.6578257328181
98.6410376431949
98.6520740954954
98.6672034585577
98.6652337526162
98.6555057143938
98.6188541749765
98.6328210759574
98.6402359821741
98.5838052828947
98.5651203746456
98.5992104670958
98.6476545667677
98.6740129775148
98.636496682463
98.5480248304996
98.5033851840669
98.5562631034357
98.5831773459535
98.6237218605279
98.6872241106553
98.6871493017958
98.6854516312806
98.7012227679487
98.652874787203
98.6228532708081
98.5043284063716
98.5462992195666
98.6534229897752
98.6413350540908
98.5881080407388
98.5716223340293
98.5913273970766
98.5917133047478
98.6272029572727
98.6120778681669
98.5778916764286
98.5838271695933
98.6271784901419
98.6265004386847
98.6410500448893
98.6946079563634
98.6975927123698
98.6065119917482
98.5385700903864
98.4513346956684
98.4408437352474
98.4307679768374
98.3562080990813
98.4560447083474
98.6544332229604
98.6848694223785
98.5112857070724
98.3313092953036
98.4172904390817
98.4954417610499
98.5646006685523
98.604956282851
98.639512595068
98.7072772243078
98.7402690629499
98.7200408572661
98.5029924813012
98.4245619178178
98.4658892307892
98.5071798993364
98.483731205239
98.4998264900877
98.6401014166044
98.6872211725405
98.6892270009304
98.6286063615928
98.603645854776
98.5916489484524
98.6430057784881
98.5938271006267
98.5327992276424
98.5556344214712
98.6591427553247
98.6869519074592
98.6722323550562
98.6140102571635
98.6731680948665
98.7348656890141
98.7315988071446
98.7332108991445
98.7014142230161
98.6409934037619
98.5669646550928
98.5598878466881
98.6201959891834
98.6215084874955
98.6482231991057
98.6915459143628
98.7331348102907
98.7135664314606
98.7354676052113
98.7940396632888
98.7820769199905
98.7248881541625
98.70699522699
98.763144667697
98.7724795968293
98.7639078596633
98.7780849067552
98.7818160052856
98.8073692744556
98.8492335357453
98.8759996136527
98.7555547940698
98.6903632702963
98.6803950620359
98.6303688315971
98.5500240075681
98.5523837922072
98.6635682240359
98.7077570592142
98.7224001690998
98.7358693232072
98.7566716863654
98.7994418093048
98.7689168266677
98.6829935850623
98.7256686531488
98.8590761120594
98.8870265506283
98.6350099318458
98.4240803788984
98.4292433742721
98.5738631457159
98.6960090300485
98.6876530145934
98.6375983461705
98.5202778231592
98.4940160184982
98.4712299943831
98.6032830549535
98.68693895104
98.7000572775816
98.7001639960143
98.720830954604
98.7745307846773
98.8236387325246
98.8290448642301
98.793973142187
98.8316340715593
98.7897782802596
98.6962574309393
98.6257335186922
98.6464060983363
98.7591928670821
98.8223863298342
98.7767019834864
98.5410802020016
98.3722254659303
98.4573422381797
98.43088876456
98.4348222012666
98.420743633594
98.4498445424628
98.5434963151636
98.5718060795312
98.565902908033
98.575390562864
98.6135346084672
98.6309394822333
98.6081477866626
98.6089602657017
98.639401028049
98.6783910774017
98.6692025142953
98.5691000208315
98.4996149672516
98.5716272181596
98.6844990866804
98.66468156598
98.4557055965764
98.2251638247999
98.2913662622296
98.4260192233598
98.4800759234641
98.4425373570801
98.4762098214739
98.4931806464863
98.5261796765847
98.5146679988839
98.4691497756243
98.4148832610033
98.3526227203801
98.3523729018508
98.3425789998778
98.3500052684331
98.447148177302
98.3344880818414
98.1971273896918
98.2565413019091
98.3123943316397
98.2375495629838
98.3522079679666
98.3006862904481
98.2605143883932
98.245032699591
98.2819388270037
98.3524794875242
98.3468105522427
98.3321464545694
98.3410751902052
98.376190619684
98.3322613525039
98.2540836701903
98.2019736244487
98.1946647284329
98.2017618255904
98.2161554722923
98.214711710246
98.1537563366312
98.0642517669002
98.1330153310998
98.2747551289822
98.2028145567565
98.155843330364
97.965788114922
97.8656720354647
97.981743547023
98.1015884094137
98.1071700294793
98.1343103505907
98.1838757851013
98.145828882439
98.0937899812804
98.1474170118584
98.1742308573109
98.1142588662539
98.0461314570443
98.0666338022098
98.0780499266663
98.0401259335826
98.0178458769103
98.0224051592961
98.0177040637485
98.0523707411195
97.9819206429111
97.9473326093077
97.7796062886723
97.6804252055282
97.7095976995939
97.7719279205363
97.8342897458914
97.8821658996379
97.881579250916
97.8645468307217
97.8638871511691
97.8839585295878
97.8433154967074
97.7833520987359
97.8194854531683
97.8242022521161
97.8157914799333
97.7935442196972
97.7120991855765
97.7134386074246
97.7703053055165
97.6999795859644
97.5987640055671
97.5782248037009
97.5670060974208
97.5821741870912
97.6426896138838
97.625636366366
97.5982170319157
97.5762654909731
97.5693225482957
97.5704489946127
97.5662335126504
97.5756684559048
97.5637160098035
97.5464545757428
97.5042184610894
97.5148787883069
97.5506773088072
97.5373020861422
97.4539459017695
97.4478742559024
97.4407444880899
97.4023780856394
97.3201505791639
97.2378833869854
97.2418157829527
97.3486634196107
97.3176482141391
97.2823412758639
97.2820709936025
97.2681124976642
97.2805034666293
97.2413244531081
97.1901681639825
97.2198396355515
97.2349820279856
97.2070024627307
97.1759512599981
97.1677899110198
97.1387001009912
97.1243881038313
97.1639542252218
97.1266516513972
97.0570698835152
97.0366666856037
97.0062061311298
96.9908516848074
96.9767527875043
96.9769532965214
96.9295031296737
96.8707072671096
96.8578456900844
96.8792550718501
96.8329268946909
96.8252568598519
96.8303664962276
96.8315589396892
96.8226993850784
96.8498156001021
96.8147135655527
96.7379745248132
96.7337095612683
96.7100961523318
96.6770846711814
96.6818322750338
96.6787117384556
96.6662982672346
96.5934612334334
96.5311757937666
96.547170238879
96.5486060258138
96.4720785225334
96.4576139485958
96.4817130014653
96.4347949910148
96.3857922211625
96.3676480808319
96.378840273659
96.3931478906632
96.3283324725957
96.2905658496525
96.2817337899599
96.2227836878229
96.1640183760097
96.1462336635608
96.1401675269186
96.156230728764
96.1394706241696
96.1162239969688
96.0497321620058
95.9885868225822
95.9674195438494
95.973413195315
95.9882350073782
95.9954003039976
95.9591434094757
95.917033253507
95.8617932961131
95.8270871755573
95.7944454962783
95.7366938729246
95.7256571375659
95.745943068563
95.725983184387
95.6366901853912
95.5612902601811
95.5843530799762
95.5644790473706
95.5228027265355
95.5014202411195
95.4707639234273
95.4370692694258
95.4210896881902
95.4025349429535
95.3670886927735
95.3439060757661
95.3119279720887
95.2904261059734
95.2655849037092
95.1949493891283
95.210168714359
95.1745422164518
95.1017179657908
95.1013104584217
95.0852550198503
95.0580729857108
95.0265509787608
94.9855922134527
94.9693352281627
94.9432865280388
94.9056575984572
94.8889055302729
94.8347485399122
94.7878801877225
94.7878955946581
94.7663257651205
94.6912495313801
94.6344986418686
94.590073981548
94.5556555021905
94.5230670209191
94.4731162048915
94.4637380590829
94.4464988837002
94.3726089684833
94.3194972387893
94.2737942835087
94.2237972186144
94.2539650567648
94.2053129880143
94.1696731391875
94.1433246019102
94.1083028250472
94.0453471597966
94.0231166706901
93.9902273682399
93.9805118105493
93.9587374095532
93.9579679842546
93.9419950321296
93.8840846072358
93.8500608016256
93.8205473394252
93.7489089090779
93.7572155032956
93.7723916654884
93.7162141487796
93.6616345371932
93.6882915746744
93.7093565556861
93.6778517180652
93.6324482709822
93.6258930986233
93.6221892117924
93.602938573247
93.5489262623984
93.4968064268802
93.5040794265228
93.5303178074739
93.5105596789172
93.4721969235046
93.4107928043415
93.3868841010714
93.3716603368717
93.3387520619711
93.2715453189639
93.2562371187904
93.249835178303
93.2085505098604
93.1603343179895
93.1356540486151
93.1289295348927
93.0742832336801
93.0161680892387
93.0101946873757
92.9707696038622
92.9360922544822
92.8928995322975
92.84033300311
92.7682280984764
92.7272895242869
92.7039551649452
92.6955246426668
92.6792206882639
92.6350659996127
92.5833251108487
92.5699934317926
92.4878441990712
92.4008045867645
92.3714725997509
92.355128147376
92.2838399892958
92.1982851344939
92.1193464352331
92.0659166062966
92.0098424238516
91.9916494721916
91.944182384918
91.8751409830682
91.8052192669568
91.7223791627091
91.6543788142117
91.6197234643521
91.5524411969817
91.4963479664623
91.4707835058488
91.4569963287278
91.3910143669834
91.3547725226986
91.3156874236676
91.2868327622555
91.258031846032
91.232835478275
91.2128104223476
91.2058912108858
91.1923606260824
91.1908936692958
91.192324416319
91.2483050170104
91.2650800164645
91.2333051059555
91.2222827703448
91.2719335905951
91.3152950346617
91.3475999572823
91.3172765351228
91.3171298229686
91.3617457856983
91.4038705122319
91.4060309637473
91.3836804370531
91.3663429219375
91.379085296185
91.3828589159108
91.3866720583127
91.4020531886514
91.4507439420722
91.4738940922745
91.4592531402545
91.3954143441911
91.3655547652857
91.3458522263218
91.3441150935205
91.3249336819447
91.292669252312
91.273623089702
91.286325854818
91.3064030128534
91.2919232491154
91.2668504270576
91.2896415007047
91.3138222451594
91.2728259605424
91.2160935749616
91.2424480554769
91.2514151235022
91.2404826240346
91.2059282008707
91.1829977569923
91.159109082162
91.1458037709295
91.128827129831
91.1473776103904
91.1912730603551
91.1580828461406
91.1198662176743
91.1322917908619
91.1243100109765
91.1340374351439
91.1622859591192
91.155095094368
91.1100400299891
91.1112433326853
91.1243917062359
91.133235801977
91.095038680442
91.0966784783946
91.106593160557
91.1329804285544
91.1254704755422
91.1233728407416
91.1152551722017
91.1193161208315
91.1324270610371
91.1474627540126
91.1323835127233
91.105090432578
91.1398364274659
91.1954157487935
91.2242040332081
91.2784756537847
91.3151594652734
91.3066426602077
91.3152825031801
91.3837466838833
91.4296998894903
91.4716695544112
91.5080791594078
91.5363253859022
91.5621919601963
91.604820360854
91.6185941730569
91.6278474797651
91.6584218345632
91.7243944968649
91.7591939851166
91.7730873196941
91.788493163986
91.8381391693024
91.8727351437087
91.8922132147844
91.9175418033235
91.948579870189
91.9527957327583
91.9897671007296
92.0433805638274
92.0898885699215
92.106899413891
92.1046722329988
92.1142041670714
92.1545079704893
92.1666718191975
92.2041552745977
92.2241699651414
92.2581586268691
92.3161169420036
92.3647101428851
92.3673094369966
92.393644673482
92.4081119963673
92.4230267420254
92.4579424651237
92.4863774400668
92.4759972399926
92.517418089409
92.565792793121
92.5922622431137
92.616286798878
92.6177946709433
92.6149098019237
92.6564650036947
92.7016513025824
92.7415637019485
92.7536574382074
92.7863947111983
92.7962522339297
92.8146122570476
92.834210124554
92.8392636314354
92.8628119215332
92.9198811651903
92.942626028369
92.9549350176543
92.9810605025312
93.0188274648927
93.0185128172317
93.0642083272546
93.0875584379279
93.0913825811969
93.1090846246897
93.1216547495911
93.1535104973488
93.1977985079967
93.2300411567917
93.276674641162
93.2955120988438
93.3065594422288
93.2996203450977
93.2990691329358
93.3137167031762
93.3239187989565
93.3327265274812
93.3847866308291
93.4014406020397
93.4195788343181
93.4417779278724
93.4611308721019
93.5002214620763
93.5402778912771
93.5459865531071
93.5976418652035
93.6268556087289
93.6138266012087
93.5857292604188
93.6155387043062
93.650090210458
93.678628235697
93.7085515846794
93.7478446172133
93.7525149284958
93.7690635214736
93.8203480233279
93.8523039923237
93.8468911187478
93.8521290285616
93.8534618370689
93.876841755288
93.902671311166
93.9170982008579
93.9498240072148
94.0237711951687
94.044082002353
94.0382046899368
94.0421158484014
94.0493319671497
94.0379604710359
94.036453794471
94.0493824395788
94.0725092734601
94.0843284932056
94.1108747937546
94.135001238377
94.1681385959334
94.1916960382397
94.2163928489615
94.2144960022615
94.2142457993433
94.2237555400287
94.2176731318339
94.2231434660329
94.2598855069491
94.2785837811047
94.2843458969895
94.2969173628966
94.3490071586208
94.3780929840285
94.3800830000472
94.3640016311481
94.3966105362363
94.4437326473365
94.4916583168345
94.5042948173434
94.5069522138646
94.4984123111501
94.4997327293388
94.5179176978004
94.550061622299
94.5459620838639
94.5520584599797
94.579653071134
94.6338107091899
94.642169102586
94.6223851791412
94.6293010265405
94.6496036654128
94.6504135911338
94.6875978116422
94.7029399902962
94.7212469930635
94.7293603469057
94.7456128781305
94.7684441199972
94.7793494056003
94.7868753996719
94.7911836184948
94.7829107477138
94.7925111205771
94.788577018075
94.8231198975723
94.8586939752393
94.8693165558959
94.8824471154447
94.905858599842
94.9010945730344
94.893372668029
94.9092200885211
94.9731497507747
95.0242380236888
95.0011712120964
94.9750073888663
95.0227349131765
95.042139191887
95.0580705391934
95.0925865912535
95.1183605086461
95.1145224592869
95.1337750310359
95.1121926944399
95.1078105772979
95.152824524143
95.1940886316595
95.1855729433431
95.1625729381916
95.1449379695514
95.1657592742664
95.216479659578
95.23346509845
95.186266288856
95.1926805650658
95.2447188644021
95.2802649255721
95.2695146855022
95.2647779647926
95.2833422017002
95.3308544999202
95.3411729446814
95.334981575411
95.3621985924623
95.3928647791605
95.3902812514899
95.3953366806624
95.3916385773368
95.3778335829308
95.3617767225704
95.3876273953002
95.4275376110581
95.4356979843311
95.4216258903843
95.4653598110399
95.5028544314967
95.5044849371967
95.5089914645391
95.5351430851423
95.5357379709565
95.5445975425224
95.5586703993321
95.5913493748441
95.6073805705766
95.608850636529
95.587773610541
95.5754869244523
95.5894525637221
95.6111923458693
95.6201127611481
95.6364058544019
95.6465532524078
95.6714765333694
95.7039484518382
95.7274613272991
95.7123234355078
95.694420088446
95.6850006450889
95.713814875244
95.7351022707245
95.7655498119213
95.7770280365373
95.7705168666807
95.7477046300259
95.7392287124635
95.7707988762897
95.7895165937498
95.7826864782515
95.7991972489467
95.8342138059899
95.8480750110607
95.8282376312928
95.8363350066693
95.863795978684
95.8960424006035
95.8931748895614
95.893064330572
95.9067846808153
95.9147063024633
95.9336444426828
95.9561315606772
95.9542808664313
95.9541440430845
95.9437667573661
95.9462275251666
95.969095199179
95.9827791803823
95.978151225538
95.9901737299832
95.999217219911
96.0007390448439
95.9946277644798
96.0123587912518
96.0285601265256
96.0350122083164
96.0471300009903
96.0724228555675
96.091378181091
96.1152006259734
96.0971671214493
96.0805100196992
96.0939672711834
96.1159853590081
96.1105719666354
96.0945010086189
96.1033245640434
96.1451970840286
96.1704690450733
96.1741314502442
96.1512658776003
96.1491948009704
96.16776001677
96.1673757591232
96.1339116508909
96.1351088384469
96.1544927263496
96.174455834915
96.179301194027
96.1739280448722
96.1507233564956
96.1401610037621
96.150792688022
96.154397746019
96.1192783946278
96.0962721764382
96.0808213158385
96.0691391142469
96.053245367905
96.0235722495295
95.9825466471518
95.957978404234
95.9458975719736
95.9379670465217
95.9209659261101
95.9370628473886
95.9632537017499
95.9620225533952
95.925283253044
95.9252342195085
95.9336470479002
95.9140425171514
95.9063456256132
95.934643614114
95.9148724585441
95.8755571874198
95.870477732201
95.8591919968314
95.8352459255139
95.8324229552654
95.7890925337499
95.755979273003
95.7210845186474
95.6876401761797
95.6645242795986
95.6520388365605
95.6293819156641
95.60132755459
95.5819579547394
95.5870096826736
95.5616168565766
95.5023931259983
95.4817328515913
95.5144739590779
95.5311404408211
95.5424319320492
95.51447513111
95.4984278546323
95.5139685528734
95.5315505758935
95.516625772561
95.4796295834238
95.455019493354
95.46352497186
95.4557615151953
95.4369301880694
95.4104668643135
95.3992625820394
95.395920067725
95.398422674092
95.3816132792275
95.3340324970224
95.2886649991663
95.289774503696
95.2911292004968
95.2437866914045
95.1668736283043
95.1169946658405
95.0907389166075
95.0574104829476
95.0027486975276
94.9565859535863
94.8987771915122
94.8439306892108
94.7711115669872
94.724860460174
94.6975695798779
94.6520414353042
94.5879546346191
94.5645458266709
94.5408568677919
94.479570732001
94.4305386618229
94.4069755616846
94.3667838403048
94.3436666144675
94.3257427368062
94.3016512334288
94.2994928892645
94.3167224173541
94.2852921764137
94.2349200739901
94.2240943112296
94.2665563947193
94.2804213422468
94.2657307379047
94.274998295915
94.2892180709932
94.2857295327656
94.3059103410471
94.3237988704476
94.3364362607023
94.3376123199667
94.3510163352135
94.3636880325545
94.3619543545005
94.3711615649599
94.4140516378485
94.4271925250868
94.4328750200551
94.4495920049297
94.4677488561262
94.4618084200896
94.4583969144539
94.4564256072375
94.4469725475921
94.4485010504637
94.4535778667011
94.4480268961303
94.4742062533568
94.4849100832226
94.4754920310367
94.4785188169135
94.4905519253981
94.4950207169249
94.5079200419498
94.5156738182204
94.5353171362398
94.5376854536443
94.5455789615545
94.5680549444249
94.5745369162743
94.5770702912581
94.6048546691335
94.6200471229112
94.6439018327592
94.6544875958658
94.6496417879028
94.6561342841009
94.6757504424157
94.6955479108967
94.7229980024142
94.7385637607029
94.7664631289156
94.8038482173874
94.8414434146148
94.8450884091637
94.8440246500882
94.8583379280057
94.9090562573022
94.9494087487813
94.965120042038
94.9711490233674
94.9917083711861
95.0376065120705
95.0737064941309
95.0841053589274
95.1099772123544
95.1266929752653
95.1314558079993
95.1246934917933
95.1458404842345
95.1887243631588
95.2006671258842
95.2036692878354
95.239504618043
95.2463475299274
95.2609494787873
95.2845162887997
95.2840933322411
95.2938194045259
95.3107987674451
95.3011053304787
95.3133308585522
95.3457029452214
95.3787200777634
95.3813230541035
95.3792293409319
95.3824885791817
95.4006518105922
95.4202613518329
95.4477844401068
95.4458440566121
95.439444987884
95.4523140924375
95.4728381164886
95.4827938387514
95.5076968425323
95.5342025915395
95.5392252240131
95.5416187029253
95.5498609546548
95.5522788593029
95.5685920220437
95.5694512937336
95.5763552435903
95.5926021864974
95.6132942252577
95.6314064413125
95.6386743647522
95.6022752295977
95.5967660268407
95.6349397969947
95.6543480366782
95.6518739578951
95.6581047016994
95.6328206483524
95.6345233015174
95.6730267020176
95.6817514331541
95.6765144186175
95.6829482826692
95.6731906947187
95.6793531533176
95.6851404229798
95.6830051037952
95.6713681825825
95.6766597056041
95.6910338796476
95.7022393251133
95.715120360758
95.7229908453652
95.7297123108151
95.7560564946682
95.7427087531176
95.7235765953025
95.7309591888481
95.7479542536095
95.760745425107
95.7705781015385
95.7840937547928
95.7993110905702
95.7849497433699
95.774415179137
95.7490332053141
95.7465708422316
95.7883304527071
95.8029940864158
95.7662481193452
95.7660966987605
95.7769370782102
95.7677632586503
95.7685958380689
95.7994346890163
95.7968194162352
95.7799775474517
95.7883174830012
95.7979519209322
95.8048663492207
95.8135024711632
95.8114279596321
95.8165922517506
95.8294566127121
95.8322344284835
95.8154282176467
95.8051758281008
95.7963792372739
95.8098285132036
95.8243477411738
95.836977554068
95.8338590495189
95.8421476054546
95.8556869767054
95.8422833984671
95.8143750166994
95.7884379998748
95.7760369588966
95.7868758351866
95.7982503633726
95.8106422098436
95.7915759514746
95.7958757489077
95.8334773773279
95.8434025838375
95.8300377932414
95.8483768486231
95.8524301754863
95.8531525224565
95.8569033173424
95.8701442277733
95.8801914156674
95.8875044060627
95.8777206894048
95.8563352920707
95.8305675838228
95.8337599853713
95.8545706923443
95.8567774022926
95.8571512417821
95.8700736556062
95.8719178461707
95.8815767847701
95.8795408565581
95.8903640414722
95.8866691531845
95.8659674574723
95.8738959797463
95.8896808369318
95.8978832288098
95.9195757220491
95.924525274033
95.923607586779
95.9258138926214
95.930344394616
95.9279176489797
95.9373412593258
95.9488943612004
95.9461197082825
95.9468005355381
95.9595832004783
95.9433582490962
95.9421593399464
95.9571963220549
95.9661334325844
95.9597682997087
95.9704353365895
95.9893078336447
95.9943972465335
95.9915696604232
96.0033902300615
96.0028499917848
96.0062936927336
96.0247426418649
96.0236734855747
96.0108376452429
96.0155336690534
96.0064445357244
96.0124290594605
96.025831381677
96.0358349694081
96.0363926419216
96.037872829543
96.0348017550947
96.038317043697
96.035903218108
96.0187011154149
96.0110542669579
96.0215725564169
96.0332581682423
96.0550718653628
96.0488253657529
96.0370296409947
96.0308517413466
96.0207347308173
96.0069956697406
96.0152910596755
96.0298176260272
96.0402169054778
96.0302521030334
96.0237645771256
96.0360889578602
96.0513057699883
96.041345224276
96.0353236611187
96.0402424338502
96.0422373677086
96.0462434994917
96.0582814221606
96.0713118591704
96.1024198745308
96.1144763050484
96.0928462432328
96.0927429897777
96.1097809886623
96.1099234323073
96.1269217034174
96.1341138305535
96.1238417349224
96.1150708684596
96.1225740091859
96.1343354962253
96.1495261935692
96.1679506374604
96.1616621150198
96.1462514872759
96.1796953075608
96.2009806425426
96.2043412665034
96.193782869908
96.1777130337072
96.1821906338171
96.2060722722297
96.2181932506589
96.2310826611526
96.2390960372765
96.22240147704
96.2042178488832
96.2243855208982
96.2507326788939
96.2583234770783
96.2530694286636
96.2733763419062
96.2927013620723
96.2922741401985
96.2745541203927
96.2850108303925
96.288688256672
96.2967954708414
96.311090240943
96.3292271091204
96.3337308074228
96.3296422297629
96.31703092988
96.3374737078787
96.3482125677557
96.3539870055346
96.3556040672617
96.3430312755429
96.3436352312066
96.3407728908088
96.3310584770739
96.3697591424558
96.3993199009077
96.3968664740265
96.3823415684436
96.4050705258917
96.4131371355888
96.4001826641152
96.3961614470265
96.4182742090023
96.4506659190363
96.4668454884719
96.4312316616946
96.4120154786873
96.4227926181961
96.4868484715655
96.5010811638812
96.4806421948465
96.4573767128008
96.4896190764262
96.5344537880304
96.5230956460319
96.4834080173684
96.4725840127016
96.4662274343815
96.4724341969101
96.496792352572
96.5103527967884
96.4742951200726
96.4840917132055
96.5240453395314
96.5362643646982
96.5314229741309
96.5280214313234
96.5108092550819
96.5219827982294
96.5402540289404
96.5487972686168
96.5447992115302
96.547139243295
96.543469159657
96.5401844591044
96.528464214643
96.5247450156661
96.5433355750975
96.5417753086626
96.5142410327834
96.5360945590259
96.5674670902661
96.590126939228
96.5882942818727
96.5862732015937
96.5689093956492
96.5656430536872
96.529677745386
96.5178473125915
96.5597132826904
96.5935903831857
96.5687271483586
96.5651381322155
96.5760709001445
96.5682978857858
96.5621365856393
96.5665649719328
96.5576440651422
96.5738867787437
96.5844014158182
96.5820080431506
96.5797273575183
96.5665147933945
96.5697525953439
96.5996542901555
96.6027932594651
96.5854699507577
96.5630000242102
96.5851083506354
96.5848694490346
96.5714299128007
96.5982080003278
96.6177787459964
96.5914797282987
96.6004286237017
96.6169877769953
96.6303951958834
96.6154655729425
96.6115080387224
96.6129180087208
96.6240287806244
96.6432379281498
96.6459539845742
96.6247529867334
96.6465571791201
96.6573979989203
96.6178834930646
96.6057535193623
96.6328790453506
96.6117977272037
96.6215404014208
96.6347725280001
96.604807763401
96.6051389580176
96.6305578754241
96.6434847025063
96.6590175200096
96.6690687255357
96.6844227597627
96.656067293171
96.6426741293645
96.6583303168914
96.6976224379684
96.6929443860506
96.6672623520497
96.666986182764
96.6618795776836
96.6865944743036
96.7337615957419
96.7092138390794
96.6807441259243
96.6553638778929
96.630523184987
96.6519606774131
96.680894561275
96.6430710547526
96.6358595905133
96.662803580423
96.645458421652
96.6068671501234
96.6509471590323
96.7062533814582
96.6944168608649
96.6475787565621
96.6680304150735
96.7288554105032
96.7303407211426
96.679633450833
96.6979158560759
96.699398241266
96.6819103203755
96.6591098292979
96.6732209854522
96.6912909564554
96.6660667892184
96.6227754538228
96.6260874971396
96.6603204593626
96.6838286964489
96.7015367002658
96.6889321975986
96.6754470022672
96.700218547665
96.6909560337932
96.7045957090472
96.7347307763967
96.7284665154327
96.6860441382644
96.6684812899613
96.6780084062792
96.7108015220069
96.7524393863853
96.7542957926807
96.7048911007777
96.6884448200068
96.6977662334173
96.7125186636012
96.7023190306926
96.6997635214909
96.7107775959865
96.7201500519082
96.7212119288106
96.7142119890319
96.7428473681142
96.7407747791781
96.7117602215973
96.7280087251596
96.7152001708773
96.6859887283698
96.691157347495
96.737916869288
96.7741346661113
96.7806240688927
96.767720563499
96.7390390516927
96.7217475966831
96.7477632290542
96.7639222521446
96.7524623777855
96.751061655239
96.794300690277
96.8014162843515
96.7897621123327
96.808815618641
96.815923635606
96.7870142210941
96.7750405843297
96.7714527238384
96.7716700521197
96.7540615701499
96.7573542196109
96.7536997337513
96.7809637427715
96.7856790463409
96.7579213039349
96.748584728875
96.7600839600015
96.7530680662196
96.7743224284892
96.7981285215447
96.779432088438
96.751579362589
96.7635047172058
96.7686713262724
96.7730888991145
96.7805352449222
96.784129658084
96.7845582348452
96.7978026158137
96.7967824043472
96.7975205870948
96.7991981502105
96.7727782671714
96.7410993524157
96.7546064617565
96.7684643335859
96.757076144876
96.7473793562753
96.7745933266485
96.7573151397284
96.7344849132687
96.7550621271675
96.7680358114896
96.7479818808469
96.7399307272384
96.7106267677673
96.6858268946913
96.6874713195456
96.7174556158289
96.704810456146
96.6712401393113
96.6483521183941
96.6402655074985
96.6614341358914
96.6338266625075
96.584401768125
96.6029076762351
96.6513894721209
96.744452434653
96.7929252072696
96.7530629240653
96.6854115487186
96.7207936180753
96.8249060407803
96.8327146333242
96.6880522977323
96.6756341014226
96.7425953969524
96.746100388208
96.7681937158974
96.7432853334794
96.6797699746767
96.7485051142017
96.7984516422811
96.7681178078725
96.7125866925993
96.7370763344297
96.7878572385102
96.8027471616515
96.7686092504557
96.7810830697876
96.7476579837483
96.6822757643952
96.6711168075916
96.689175172989
96.6669992175616
96.6157976824342
96.6092582923266
96.6553748456049
96.662613876965
96.6606668047448
96.6847269848646
96.6536171852661
96.6792778083574
96.7105516764407
96.7485828586408
96.7793568469216
96.8125000363556
96.7009165221341
96.6250422380918
96.6001908192028
96.7052398789106
96.6923601772171
96.6896534969993
96.5915915700206
96.664324503117
96.6286234905234
96.6426927733822
96.4956374152194
96.5778778916518
96.5861801318991
96.6601237744585
96.5595274231897
96.6673001145358
96.6586728382779
96.6828406580365
96.6498213512298
96.6898623956173
96.7066305246365
96.7139528556516
96.7079697635861
96.6655542697953
96.72314002068
96.722428517486
96.7674240765281
96.7908270019403
96.7796851344109
96.7788720617979
96.7750081238269
96.7754355538012
96.7680532276298
96.7866067995412
96.7884311339299
96.8355885234276
96.8593346396258
96.8327170180573
96.8416044444236
96.8682968941959
96.8829788868964
96.8724100394138
96.8485673690578
96.8521884975683
96.8826089988866
96.9084227801077
96.8833850024388
96.8645764035691
96.8833501081351
96.9097409869277
96.913248982991
96.91034019762
96.9388669129869
96.9747114503228
96.9754474971827
96.961937583674
96.9513211762285
97.0307208865787
97.1132392304165
97.102450036367
97.0682180097312
97.084348419702
97.1693190832865
97.2045518324839
97.1580914981796
97.150083953552
97.2018303659242
97.195581577
97.2042121857014
97.221172321071
97.1937820206491
97.2119557885571
97.2562760219654
97.2581330990725
97.2193697251459
97.2426845044976
97.2569563061743
97.2747800830189
97.3361147055183
97.3845249084271
97.344242174521
97.3536664761416
97.3335240777905
97.3544714951498
97.3976674387827
97.4055624885564
97.5057750778812
97.4971979744484
97.4328744075873
97.4108426865175
97.4037547691458
97.3828577000445
97.4487168129152
97.5369964510293
97.5575136771294
97.5279717685345
97.4453217424309
97.4433437671879
97.4738778233203
97.5738559258419
97.5756724265391
97.5132192901188
97.5566694098448
97.5150040529193
97.4700908942933
97.5487538866902
97.614895090664
97.6090827053931
97.5734534817128
97.5871776569819
97.584522002438
97.6109759100425
97.6683636376909
97.6165438564548
97.6164934272998
97.6615969665764
97.7056304931525
97.7412888784248
97.7400217619513
97.7312429440663
97.731153116074
97.6697877101313
97.6205973479271
97.6344236141444
97.6239208158702
97.6691791998681
97.7120838509633
97.6862838113265
97.6854168973798
97.7352586733414
97.7103182854165
97.7378783400996
97.7602120080381
97.7440806784176
97.7839399695723
97.7809698883439
97.7886029598568
97.853172618011
97.8371552845224
97.7379024563866
97.7021497227857
97.8019098031961
97.9470241034667
98.0745376016742
97.9897233004356
97.9569267493395
97.9467328649873
97.8872357752752
97.8768377919348
97.9623854138564
97.9291980013679
97.86065590323
97.9064975811417
98.0150908291919
98.0226113487894
98.0142095815111
98.0444336915589
98.0382832503908
97.9694438836
98.0793406892519
98.1814214321077
98.1171094014802
98.0090488029277
98.0366880674767
98.244347770948
98.369959421621
98.3047193251568
98.250567087622
98.2209422949562
98.1663559893387
98.1387283658347
98.337784662816
98.319186229279
98.1613635043385
98.1734430477123
98.239628214404
98.2061601872405
98.2735315810701
98.3885125518196
98.4339275431615
98.4230425786665
98.4823848228044
98.5357434808492
98.4768359197204
98.4901154594745
98.6318879398405
98.6647290279254
98.7048647314457
98.7814854164068
98.69335434831
98.6986772975896
98.684729550249
98.5674377957313
98.4922061958427
98.2896333606266
98.167499654005
98.1543719113488
98.0639917627337
97.9578729196624
97.9464718693264
97.9400554279697
97.9175681259407
97.9030063514482
97.8725734946948
97.8599863322072
97.8962878801345
97.8451093384886
97.8235122726286
97.7975545107964
97.770150333778
97.6503255194358
97.4957286138458
97.5611271380544
97.6491569441205
97.57731980507
97.4550691411996
97.4275293849905
97.5216624942694
97.4766191808224
97.3893495596362
97.3538462655246
97.3318931825716
97.357776999366
97.2810406076475
97.2169163755949
97.275627063319
97.2606899942014
97.1939943666249
97.140855696644
97.1271398051771
97.1601109308941
97.1334578242469
97.1477368246974
97.1533070295418
97.1019601546151
97.0565939301118
97.0562427677353
97.1114971282588
97.1596552901649
97.161969747832
97.1442299949116
97.1248736999657
97.1316114484733
97.121303410185
97.1488787260687
97.1117946840926
97.0821283399553
97.0981852197564
97.0866578712704
97.1223987832951
97.0880004653627
97.075323678839
97.0993988227458
97.0785202510974
97.043259346159
97.0484941464166
97.0809848798105
97.1143234587819
97.111408542773
97.1532223026598
97.1612530431445
97.1182536484731
97.1376322117178
97.1079713599578
97.1091778564806
97.0776738736505
97.0095798032342
97.0852956624097
97.1766789309725
97.1941085060393
97.1520092928983
97.189845179668
97.226679247995
97.2843463425701
97.3072275327203
97.3297119771861
97.3234896229138
97.2620287881285
97.2575091424385
97.2868780264399
97.3297125949366
97.3160506419787
97.3023287187741
97.352428574454
97.3358598506838
97.3910553064708
97.3724667094559
97.2850005222299
97.2754648949533
97.2771833762186
97.2221125519598
97.3191429147635
97.339710584066
97.2637933504089
97.2560522520122
97.2957253131883
97.3301214714036
97.3635825660288
97.4035754782923
97.4229030602644
97.4075379161212
97.4374344303843
97.4953423857457
97.5242499531533
97.5270181411581
97.5785710647129
97.697092451514
97.7418203656443
97.7432541656994
97.7653744501551
97.7881764513509
97.7917415694307
97.8747223892232
97.9009593886128
97.757499921628
97.6372150109326
97.6744476910264
97.7009396565873
97.8057063201606
97.9458135069903
98.0321910671126
97.9725692138135
97.9769033555441
97.9252639283414
97.8944565227097
97.936840069551
98.0773470908343
98.0742210020973
98.068663732143
98.0966495017301
97.8324780034895
97.6964740153849
97.6746316691877
97.8499258014644
98.0855546953909
97.9533492627024
97.862289304891
97.9244736355267
97.8564379596649
97.7187104061547
97.7458804183783
97.8738791541438
97.8805708317125
97.8320837952878
97.9135621115738
97.9098357287941
97.8071865107253
97.7336503595235
97.6821625042246
97.804377810316
97.8885151415937
97.8575294055229
97.8306165200804
97.7931922423914
97.737873233747
97.6848604126685
97.6000608477232
97.5760938174525
97.5693910205734
97.6693998491581
97.6572173601686
97.5270704395639
97.5931846986364
97.6865072191723
97.5732270204133
97.5210222915634
97.5933667591733
97.6635996036307
97.6751327347699
97.5768387216013
97.5865591187814
97.7406354306037
97.8043867443137
97.8088774864784
97.725742502861
97.7646005006685
97.8718765964424
97.8459635760293
97.6679555026055
97.7721574609557
97.9155746936795
98.0153584839258
98.0291826450658
97.991900492479
97.9487649172367
97.9633985116402
97.854835871885
97.8397022459509
97.7821494977744
97.7009538283781
97.6398987382816
97.6434655392948
97.6322412593923
97.5389225128149
97.5464313212351
97.7034466644173
97.6656689393929
97.6224516686434
97.512076557022
97.5011013823072
97.6890306395741
97.7281879494297
97.682576149667
97.5749309803074
97.4601941278607
97.4207446555525
97.4344453831834
97.502087038966
97.5558747706987
97.5221982480804
97.4240962531859
97.3865114362138
97.4017510296531
97.3973420099046
97.346694751684
97.3191563225652
97.3465433230416
97.3053926496683
97.1889787371407
97.1210450733384
97.2390786749569
97.3243337521544
97.2879674568126
97.3388986621454
97.3666275799592
97.2585874496283
97.2082885880556
97.2708165421528
97.2814322538272
97.2785445079739
97.2618486652357
97.2542636873502
97.2197676973485
97.1671205658962
97.1761655305125
97.1577330011493
97.1699585129495
97.231018208217
97.1636807318029
97.0523464246226
97.029634675244
97.1199208160112
97.2033677980566
97.1994615888428
97.1567219166725
97.0629913279377
97.0503878811319
97.1267417265633
97.1509828581716
97.1825287378876
97.1373586156867
97.1399940374481
97.0974173075059
97.0523260535311
96.9960169564412
97.0389647991366
97.1480182429587
97.1466214881991
97.0452140064327
97.0158164710876
97.0751404445388
97.1040904620499
97.0814390327035
97.0892462321401
97.0591606731896
97.0474253672294
97.0482722155047
97.0902971012143
97.0916432334235
97.0852873364575
97.0960886392965
97.1028786828681
97.0900146987976
97.0964532207768
97.0147722051965
96.9721330926808
96.9526312920257
97.0152640988106
97.0502847509574
97.005191319482
96.9867095441254
97.0296216758659
97.0463365067055
97.0701478303227
97.0523373916023
97.0511686910818
97.0813604129035
97.0759547634423
97.0539649787871
97.0475716978544
97.0243685119003
97.0086176921772
97.0223375848382
97.0217850365056
97.0153284289208
97.0015602307053
96.9323522379051
96.8341239016679
96.8270949109856
96.906807369791
96.9211443988938
96.9822828968474
96.9970257859718
97.0130990739633
96.9924288800538
96.9499778467466
96.9680305770327
97.015662227395
96.9600164086847
96.9748273199444
97.0020618619508
97.0040145269826
96.9867603230159
96.9843423640926
96.9769603959456
96.9869377866986
96.9733466096002
96.9943010604098
96.9687467349118
96.9133274481119
96.8911220391308
96.9530393262804
96.9024839219207
96.6923209053812
96.6804781061377
96.7867244951206
96.9447289092244
96.9620914009445
96.924445052718
96.9380439637232
96.9364441204688
96.9073077657428
96.8971284639504
96.9198122161649
96.9555555248598
96.9462290421779
96.9377479336748
96.9619662735809
96.835020835238
96.6622438657649
96.6978727997424
96.824480529195
96.9166103534592
96.8140956209628
96.7399460923979
96.7562419036863
96.8525893802755
96.9470119354847
96.9103971066699
96.9045871756501
96.9242533097653
96.9072486660677
96.846588262294
96.8858641562259
96.9194489095456
96.9404097937496
96.9058014419666
96.8889162359189
96.8716840347802
96.7988910556092
96.7814350731655
96.8104286157517
96.8241584879225
96.8462655912203
96.8276263295286
96.8268291128343
96.8606006800579
96.8721287620435
96.8143198501636
96.7927668496196
96.7308402000743
96.6772837992576
96.7149305748456
96.7974726334364
96.819789306147
96.7531347257799
96.7508635237431
96.8214083729533
96.6694562464619
96.5920302068396
96.509956324826
96.593717742397
96.7128225751334
96.8022392294429
96.8531615153685
96.8774763957683
96.8519451414924
96.7396771525706
96.6848172661008
96.7201192043244
96.7799310847616
96.6745909507768
96.6613217695413
96.6857911366318
96.7824736200891
96.8365258276174
96.7832405215049
96.6914307262159
96.7476049439666
96.653359750725
96.4558911585241
96.3436227799713
96.3974883016515
96.6698467882747
96.6829480764862
96.6191988279191
96.6914333017377
96.7236369908594
96.7750552422894
96.7814401760917
96.7956464869999
96.6041237553368
96.4658002865933
96.5787544878162
96.6264099524186
96.6802108943151
96.6463556877358
96.5302207463644
96.5876913099104
96.6310386886821
96.670229990829
96.7309326285435
96.6177328642508
96.3035106946757
96.4030374013685
96.3523649250845
96.354870286161
96.3345212409082
96.4355294573421
96.5641892333598
96.6017001657322
96.5183547996612
96.4912060384666
96.530548739725
96.5566929237533
96.3765213503024
96.3821212504294
96.4626656319389
96.5173132082116
96.6147541370039
96.5469834755943
96.2082228564627
95.9113253212057
96.1142610614141
96.4582713357256
96.495600657316
96.4179327288427
96.5222728010602
96.599373472076
96.6336542125415
96.6440387606841
96.6505974154306
96.5780528788147
96.5209363680864
96.5566926120218
96.5510962331813
96.6039058765374
96.5589970409838
96.3426134735112
96.0307878838306
96.1063874522744
96.2704787769604
96.2718529558416
96.3552859149696
96.4777929573193
96.6512746583109
96.6684568283573
96.6041101600989
96.5795853459647
96.6429159973621
96.6122296485843
96.4139834183098
96.3714326853491
96.3108625156002
96.4054553141339
96.5229676251266
96.5731734467058
96.3300846849365
95.8278263108689
96.1214141964665
96.3572195896317
96.54166410781
96.2898043593312
96.1096854777072
96.3766561456467
96.5975092866011
96.6792613358747
96.6802046774278
96.6135074812736
96.5596499850565
96.4417152262978
96.3590055342248
96.4309955862579
96.4492393276802
96.1734694551691
95.7225156161136
95.6310390416372
96.1511888456524
96.4031065128575
96.3735053200769
96.3877574365245
96.4453948243265
96.4529396275979
96.5056806855838
96.2023921473299
95.9665931094898
96.1534754351969
96.3244745068882
96.2496998264766
96.1645904299069
96.1848650619282
95.9106590006313
95.9583340127853
96.0847146249887
96.2497501904496
96.2519534123311
96.2812195462758
96.1861852602563
95.9355042113875
95.9340570622895
96.0283202795168
96.1108065288734
96.1413862674738
96.1331403716935
96.0930178180142
96.0661680278862
95.9502315312431
95.6266853160872
95.1879875489944
94.7391850403379
95.4368023389453
95.8725519933005
96.0857554475592
95.9839940682567
95.7209880607755
95.5774501032607
95.3533041421538
95.5490789895444
95.7923075340681
95.9017278723765
95.9306479657946
95.9181005924872
95.8743959279855
95.8465844368016
95.8151584807995
95.6159138177749
95.5959723025563
95.2264166416969
95.1226638086118
95.536487704133
95.8236387757365
95.9656500234162
95.9988345993194
95.9494346702831
95.9381560606339
95.7713792214822
95.6749578891083
95.7930377108058
95.8749858448613
95.9095494099466
95.6763950339603
95.6372631739565
95.8061052310328
95.9308790157499
95.9909021201907
95.997273354991
96.0185079484389
95.7103731747597
95.5201706075906
95.8194966937731
96.004541627727
96.1211753962888
96.1521413956318
96.1791083566723
96.1921976389824
96.1337006176945
96.105143330899
96.1228909145301
96.121728954135
96.1736098781105
96.2000261246651
96.2348906860465
96.2066142242137
96.2450436089368
96.2524367328774
96.2758414197824
96.3082462882182
96.3255768031732
96.3348020252499
96.3322520390921
96.3374630861934
96.3137049926253
96.3140865024858
96.3776108387735
96.3869633495382
96.401827545984
96.3974002640936
96.4246185583448
96.4344328118736
96.4491515706429
96.4712239479444
96.4786068668849
96.473314197213
96.4894287237376
96.496828169115
96.5126149428786
96.522151784958
96.5369209413788
96.5244078033383
96.5047554872683
96.4009099603557
96.0380639578259
96.1500941106089
96.4294405093695
96.5977003893072
96.6424913100783
96.6497356469549
96.5960665818538
96.2626070162799
96.2430426571026
96.440344538123
96.5875925161517
96.647994363172
96.5189504174331
96.5260225107076
96.6091125527364
96.6164927081872
96.6314129042593
96.2738917956106
95.9128772519625
95.5329516925521
95.5995437650904
96.2780372529559
96.6842700886721
96.5826485171916
96.4539999262024
96.6478240079136
96.7132119185202
96.7353335895999
96.472114858454
96.4925652529589
96.6431192304956
96.7008320827087
96.7182945587486
96.4949555991588
96.3397866420994
96.429185665214
96.3093062934468
96.2014807046992
96.2288305811438
96.002433582403
95.820967428153
96.2381325954495
96.6977651686031
96.7949488712221
96.8300843123396
96.6590574056813
96.3427183274525
96.4754063935379
96.5519907499673
96.724585920165
96.8038771995796
96.7438148390811
96.5943760397695
96.6164305988259
96.6045997207446
96.4162787882612
96.5922382690185
96.5702073038533
96.4946444995389
96.1985320026775
96.0974534972066
96.5060414399499
96.7854034370024
96.5647389366657
96.4257034309826
96.5487621824133
96.5649107455713
96.7825201095176
96.8115048058159
96.6550191407049
96.7199166242743
96.624722500346
96.5807438386281
96.4386902927159
96.0756863731535
95.8138664117315
95.9877756397554
96.535904783522
96.8732428213435
96.946772015232
96.8948907798162
96.8615822292279
96.9127507214038
96.6649140825276
96.6873833833977
96.7221492615846
96.4909341954608
96.6583343846028
96.8265702322505
96.8943661806681
96.9436360036045
96.846577746657
96.6052339716063
96.3779838931623
96.5161207839504
96.5968081757548
96.5349421515053
96.594835556966
96.6290247561642
96.6323613168087
96.5697955495069
96.4806065603087
96.3140020703699
96.2778520449902
96.3021963066899
96.2937646627031
96.2961106417365
96.0997417377943
95.9861379684175
96.1670890224507
95.9759914217174
95.839672498968
95.6643262344758
95.8590248064363
96.0739854743259
96.1513212734287
96.155856460702
96.0547160002795
96.0086675817262
95.8131257219809
95.5659461137886
95.6834879670342
95.6982064206618
95.6795863345426
95.5907204672394
95.4629350544535
95.1563180477317
94.961962985195
94.621979945326
94.6262833036747
94.8760788715079
94.989190589297
95.1135867654149
95.0479632301135
94.999086830117
94.9731637519728
94.9715077357925
94.8889535996505
94.6707694426964
94.7909314731574
94.8923200130228
94.9172551836992
94.9179844225776
94.9137642621176
94.903383959403
94.8811437198262
94.8685038193333
94.8134751477521
94.7646095764871
94.600435806985
94.1570529217648
94.2707859500153
94.4190660949887
94.3785443148502
94.239401463782
94.1284520523415
94.0088173518655
93.7356540437761
93.6539344025084
93.7134689745905
93.7021514376148
93.7041739577546
93.6858196702969
93.6043561051221
93.4730876313355
93.6451758146385
93.7497224537385
93.8737316900014
93.6316709457417
93.5011513794149
93.8660853601582
94.0711688614763
94.3587691451155
94.5233103059578
94.6433076023939
94.7156056008094
94.739801611856
94.7384639993623
94.8103849193697
94.8624202432933
94.9191042240741
94.9621482232797
95.0064170556251
94.9945982722338
94.8442723951396
94.9277093672748
95.0737459573191
95.1221927368046
95.1329279476532
95.1407105147112
95.0062882989128
94.9528702838317
95.0653435564146
95.17176591045
95.1253893392569
94.9505163362447
95.0661423265098
95.304667245545
95.362496890692
95.3777645600385
95.34837219299
95.3456882673053
95.2465976274003
95.0259344992033
95.0780625400323
95.164475195437
95.1855919421636
95.1186399121862
95.0306779541539
94.9298131489534
94.8346754444703
94.6985439411818
94.5770756366947
94.4228595340609
94.3026012151404
94.1532036512221
93.9329279320757
93.6834295563876
93.5286207523766
93.4731269300294
93.3694331367517
93.2847511299357
93.2084641171554
93.1071084860398
93.1185657484738
93.1817695675329
93.2056318933974
93.1985182316058
93.1543695475848
92.9186835258204
92.9189912839142
92.9317892130985
92.9589731911108
93.0171424880138
93.0253201671478
93.0528695427128
93.0642485498292
93.0378051024859
93.0021757089067
93.0600068862574
93.1295521543192
93.1882889569811
93.2671063066146
93.3301194778582
93.3763925034031
93.4346001011736
93.4711549008348
93.4640557274534
93.4325564926564
93.3676941801925
93.2784442649137
93.1528368341328
93.0214255040542
92.7932716429661
92.5690631148785
92.4221588476377
92.3945393708011
92.37925417179
92.277470914631
92.239556655857
92.1858068635612
92.1582840108862
92.1420640250209
92.1882727956114
92.2535912379543
92.3457322505923
92.4366782583456
92.5192835134909
92.5691071930264
92.6034968051197
92.6123028663799
92.60020722537
92.5377347814945
92.4648903189508
92.3372800241087
92.1827254804412
91.9807001772948
91.8058108368693
91.6594064296791
91.4876918683253
91.3652542172842
91.2542594346068
91.1838913006103
91.143465045436
91.1829107056731
91.276814302763
91.3759766371177
91.4942646459243
91.6163300128935
91.7700389572157
91.9394715850638
92.1101797817111
92.2853284733377
92.4581763377894
92.6200641168868
92.7866102610597
92.9472805284718
93.0921603693677
93.2305606687441
93.3652150104527
93.4643497212921
93.5474337697477
93.6298091578442
93.6873592494348
93.7202320424907
93.7345186985911
93.7488293152918
93.7674727555437
93.7973327671994
93.8059802265857
93.7901891871423
93.7865016273067
93.7786092269814
93.7415410766559
93.6885462675683
93.6202303225975
93.53362549902
93.4563932203619
93.4035790304598
93.3851951946142
93.4113774553018
93.4523321702858
93.4882295138532
93.5185529502536
93.5599521065221
93.6043335237188
93.6504014819057
93.6941101724866
93.778616621639
93.8691842883103
93.9531211698874
94.0272725915214
94.0893568151582
94.1484671043629
94.2021421205768
94.2519514835168
94.2913978935781
94.3227681860659
94.3542981599976
94.377295977914
94.4052939801622
94.4515455623411
94.495311429953
94.5367555244768
94.5613584379632
94.5803525845158
94.5955906444478
94.6023471909894
94.5968062088149
94.5795432869186
94.55827325959
94.5448108572588
94.5194199279798
94.4928646740963
94.4734739818484
94.4753380200048
94.4986294927249
94.5342013905669
94.576204153674
94.6104260114947
94.6376174274492
94.6628951364055
94.6899036277995
94.6991251621067
94.6897286393122
94.6759607791052
94.6515886708537
94.6492198819776
94.6805646064585
94.7269124764216
94.7772650503972
94.8411794276611
94.9130542147169
94.987983005494
95.0682200614074
95.1456809320871
95.2226459298485
95.2966053113594
95.3735147808229
95.4551294028252
95.5406014202082
95.6264431236154
95.6919989607259
95.7393145244831
95.7814146202564
95.8281218716099
95.8694545033012
95.9031291017042
95.9309652168122
95.9476451467435
95.9426612268005
95.9056849377495
95.8452320008956
95.7534198655147
95.6204437526793
95.4606491369868
95.2821138956307
95.1188042962276
95.0032676977145
94.9357832507725
94.9081908734294
94.9078058531507
94.9207177720857
94.952035614399
94.9984273612696
95.067599344786
95.1469237109053
95.2256853367343
95.3102695443477
95.4036211299754
95.4998073648075
95.5925939774128
95.6821766249148
95.7672596905229
95.8399953548916
95.9129490146437
95.977482408667
96.0219873798839
96.0554625806973
96.0762808796406
96.075901401823
96.0647137601654
96.0392672288739
95.995200656944
95.9450294106078
95.8770574236794
95.7947505503872
95.711741776012
95.616410829755
95.4931466087284
95.3393637235077
95.1665691768085
94.9754884277022
94.7628232237252
94.5099115140397
94.2074075122704
93.8584532301925
93.4681971143595
93.0358854395919
92.5699952986014
92.0834445388448
91.5881063088588
91.1109261576111
90.6793806201194
90.3129446665744
90.0359778746595
89.8506475824913
89.7503185105135
89.7296390732788
89.7869926109377
89.8934292321698
90.0166579257781
90.149045363728
90.2921177740245
90.4355753137756
90.5817989347861
90.7335840809368
90.884265942064
91.0277836808093
91.1504898337001
91.259936089717
91.3764458307245
91.512641971353
91.6739539300394
91.8582677906069
92.0607535397851
92.2654740031018
92.4611987235541
92.6559287416502
92.8290695883087
92.9512948680948
93.0244382550479
93.049921081973
93.026312142395
92.9512948542837
92.8280244811995
92.6851957015741
92.5529521109367
92.411368006349
92.2502603734197
92.084275788277
91.8903443969582
91.6451941999231
91.3653255647792
91.0551841418606
90.7304617811496
90.4227843146929
90.1558168875363
89.9254067197515
89.725077833906
89.522485843421
89.2860868824428
89.00747264817
88.6743343150795
88.2677838329347
87.7858649403036
87.2562211068156
86.7164580542096
86.2081086364584
85.7749365383642
85.4544335606817
85.2697864126129
85.1936593685525
85.1816575169672
85.1996977580498
85.2296260247252
85.2678014122738
85.3009151281978
85.321667626441
85.3571810917211
85.4354684359358
85.5650809981739
85.7315736285218
85.919474484611
86.125441632029
86.3403545930618
86.5515098352792
86.754183982866
86.957999371768
87.1602114796325
87.3425962345176
87.4892002356711
87.6015066438531
87.6890024074838
87.7541013438081
87.8052732178052
87.8507002522392
87.8982333982426
87.9431995903565
87.9730975373154
87.9854543605256
87.9691697650135
87.9060242598161
87.7963230152334
87.6366996329133
87.4242510678855
87.1820626762442
86.9462399404529
86.7327719992117
86.5428268353515
86.3702784673134
86.2081392983205
86.0386075858736
85.8396914349086
85.5927166083561
85.2934657846168
84.9413047549656
84.5289712846165
84.0600622045909
83.5348585714184
82.9427283798502
82.2891161871195
81.5976394070763
80.8962475618144
80.221241212063
79.6071290406958
79.0777862813519
78.6538189586751
78.3359207362649
78.0964281414766
77.9015417848245
77.7524874880607
77.6680175737906
77.6496250156922
77.7040711454785
77.8257307855956
78.0058532689927
78.2370952295645
78.5069394311268
78.8011983503684
79.115079466617
79.4176478860851
79.6723182437076
79.8744682078841
79.9923918751338
79.9987320592734
79.8841591305945
79.6548866978077
79.3456573754589
78.9697074196071
78.5365692268713
78.0746003847939
77.6266535456556
77.2209477660991
76.875575198707
76.6119819506573
76.4208420008799
76.2876361648291
76.2121789403811
76.1864946019437
76.2043916957584
76.2531014444245
76.3190210839073
76.40332238145
76.5088818656463
76.6167096660493
76.7206833992939
76.8297460858997
76.9294983352506
77.0208309155358
77.1092227000662
77.1815209893744
77.2252770368603
77.2453892132483
77.2452115871338
77.2377107300103
77.2378055841985
77.2597262509837
77.303713162935
77.3467075917723
77.3690181012847
77.3705965656381
77.3680193625923
77.3625246294387
77.3469237224885
77.3045880813736
77.2273015114988
77.1315300916637
77.0197034871289
76.9002740872868
76.796361510904
76.7230267148464
76.6900471972376
76.7020498945019
76.7444051388943
76.8026846416426
76.8903979374641
77.0014800245102
77.118585342749
77.2209768411024
77.2933146830509
77.3426025299415
77.342330716303
77.2812410860907
77.1554056339464
76.9690443509797
76.7670888893381
76.6034165835172
76.4981702324487
76.4654110928079
76.5308308493682
76.6801543175661
76.8893942542694
77.1459395760192
77.4149260994453
77.6801585085899
77.9592835703266
78.2395754472005
78.5022702008191
78.7573823875718
79.0056073738562
79.2397164236574
79.4669859660668
79.6877922004284
79.8935349043577
80.0960272456956
80.2925119789451
80.487166560567
80.6905628825889
80.8861391564142
81.067103064064
81.2464401549554
81.4213108066295
81.6045537573749
81.8047071333888
81.9941832900746
82.1752168072555
82.3615122014307
82.5463368185628
82.7276464978344
82.9111687651162
83.0963105418216
83.2670782256573
83.4302991387939
83.5913335300269
83.7452417287344
83.8927021231894
84.0345446952084
84.1800419043894
84.3359810447069
84.4867794752589
84.6365575618156
84.779506704878
84.9000308857637
85.0146215444828
85.1210043826402
85.2232609747988
85.334574433998
85.4447278293516
85.530211198191
85.5976076591801
85.686095810077
85.781934400405
85.8649919205248
85.9457579160793
86.0311742577573
86.1275712790877
86.2109269345527
86.291187224877
86.4005310632959
86.5041332310152
86.5800614777574
86.6465535668086
86.7282350064626
86.8262042591569
86.8991385543012
86.958854854553
87.0393110377733
87.114400005754
87.1673935989429
87.2192503122456
87.2666772791387
87.282132965758
87.2883618050278
87.2964424650293
87.2997163004909
87.3001637542804
87.2928467813271
87.2865157442798
87.2927101730172
87.2935331965775
87.2787910708419
87.2798619431426
87.2863496400734
87.2625010724329
87.2429643754626
87.235140358304
87.2016560199937
87.1670930301002
87.1542487154959
87.1454212876575
87.1147691525862
87.0885235479977
87.120481788496
87.1734035108531
87.2063955263127
87.2393373410276
87.3070038840388
87.3793750267076
87.4423485322243
87.5173427961659
87.596402190755
87.697148925399
87.7994425895327
87.8756430043444
87.9564303770929
88.0678194543767
88.1661284686945
88.2504468750495
88.3387214640107
88.4152024360358
88.512616979858
88.5958383279862
88.6541419702595
88.7403667389792
88.8523809924072
88.9463809631626
89.0066056990618
89.0832690607195
89.1543502001282
89.2212732983493
89.3028922085074
89.3687957440373
89.4244660645154
89.4727474637911
89.5233042179854
89.5941922284769
89.6678067285868
89.7272039092118
89.7716270258772
89.825871554155
89.8899423683521
89.918409124839
89.936505847394
89.9879366186153
90.0456324073901
90.0860759326467
90.1414890853572
90.1874351965146
90.2287287934515
90.2776283982862
90.3044709925771
90.3473465727774
90.3826820399811
90.3944532142425
90.4380818518348
90.49125255742
90.5164209114326
90.5195778515053
90.5437067433921
90.5813400350916
90.6020740186107
90.6269219891327
90.6573651949939
90.6883692061722
90.7073869842853
90.7307423397716
90.7880414320128
90.8106548665668
90.8008730339363
90.7933615545069
90.8160147616176
90.849575180782
90.8632992947563
90.8845333965073
90.9079263304945
90.926469100943
90.9578725033612
90.995065694416
91.0080905900066
90.9983385086619
91.0007246065102
91.0288040718311
91.0746435425123
91.098962117307
91.0830149669666
91.074302470696
91.097248127967
91.107261812319
91.0869802296912
91.0901759056828
91.1578552196748
91.2046415053388
91.1742737785127
91.1314470390352
91.1578232209274
91.1949988837537
91.2008213082703
91.2062791264972
91.2176582169063
91.2345181537226
91.2263066626832
91.197956861011
91.205140461074
91.2275680026519
91.2443912058512
91.2715236670375
91.2976864078241
91.323075050519
91.3434284822245
91.3249494430115
91.3054099966203
91.3068428205719
91.3135611348465
91.3310216248596
91.3474876277146
91.3364184605293
91.3037509568865
91.3111467905315
91.3456966467234
91.3354954154877
91.318799680325
91.3161382516114
91.3333133259133
91.3411945116978
91.3698640734473
91.3927869648088
91.3775449015352
91.3606783306658
91.3533285827187
91.3154991366101
91.2726677345673
91.3123923856244
91.383759715066
91.3708550751651
91.3065882336884
91.2651592452233
91.2949259229184
91.3269984184653
91.2821899753883
91.248908230364
91.2425441060767
91.2046647925496
91.1853379140071
91.1714660107551
91.1093977177664
91.0890832841913
91.1443170067728
91.1356409236351
91.1022883124817
91.1055626887028
91.0740754321382
91.0042097673044
90.9622908126543
90.9323617777777
90.9202020449717
90.934480539371
90.9537021323897
90.892984515432
90.8065911852937
90.8038827182958
90.7915645780292
90.7434749104092
90.7691626779225
90.7802660548263
90.738528078388
90.7153537404317
90.648099141468
90.6026434138347
90.5928023138743
90.5377646572704
90.4923137253439
90.515647028928
90.4332232085892
90.298658790226
90.2302290112198
90.2588192033995
90.3069013871607
90.203314758918
90.0745547950893
89.9784825213025
89.8426673958434
89.7411066473809
89.6379269462135
89.4900858356475
89.3346359340444
89.2401192816991
89.1067485617854
88.9470403241682
88.7678609251902
88.5444500563068
88.3461162891481
88.2112894569995
88.0552041236668
87.8291072351396
87.652268700369
87.4770371661449
87.2876983161381
87.0882896993828
86.8410407825475
86.6542259995542
86.5364066077295
86.3767730879513
86.2822636521584
86.2920679655163
86.2393580677194
86.1864486939157
86.1015142874973
86.0228236892987
86.0297673213259
85.9869409960236
85.9619154792164
85.9200897279554
85.8101823761178
85.6942390788407
85.6413731609257
85.7087978766483
85.7501704814722
85.7753012860747
85.8508514207969
85.859253550622
85.8951248769281
85.877644991317
85.7559932574298
85.8345708457644
85.816807564443
85.734499272172
85.7845001974145
85.6962348651089
85.4835497325068
85.4503296268914
85.4890040502051
85.5978884733507
85.525659297009
85.3700279199016
85.2970559695683
85.0813578774743
84.9071740931621
84.6294351004957
84.1923707684707
83.8927187216691
83.6649328530424
83.515684480845
83.4017563776361
83.0182311144709
82.6500605533946
82.770019626414
82.726633082573
82.5985255213346
82.4497535940043
82.1442377591821
81.8732759354047
82.0277509016003
81.914757585106
81.5533635290637
81.4356300427329
81.6921712395625
81.9036639373695
81.9973453704783
82.1397601500905
82.3196854259771
82.5045437501726
82.7573784534708
82.906715406362
83.3778168233041
83.0957129448142
