3596
4000.36533379555
650.420452594757
1
128
2
98.6584111314162
98.6774252031104
98.6653728096014
98.6081852738767
98.6054093755731
98.6522780966048
98.648781535698
98.572577913367
98.550157317509
98.5400992078327
98.5535912313529
98.617963382347
98.6309527388081
98.6268407220524
98.6952062525418
98.692126119701
98.6221105277281
98.5944185477406
98.6054538600489
98.5989437576653
98.6208029415965
98.6491531445805
98.6138940315397
98.5556797129928
98.5972209601297
98.6414213394044
98.6239918501738
98.5620670008496
98.5929305581717
98.6318998941853
98.5940007128372
98.5861701580736
98.5965930815353
98.6086050268618
98.6247217099035
98.6416937702129
98.6917942503931
98.6740351747047
98.59507843698
98.5710175566113
98.5604798116957
98.5888827237351
98.6359676787878
98.6234146326921
98.5927719396877
98.6213485629216
98.6718607071306
98.6162302329793
98.599153874413
98.7501442535374
98.7394796647606
98.6846483723374
98.6386232952827
98.4368510381712
98.3452968977029
98.4604983322369
98.7219800937062
98.8953605818186
98.6630516081668
98.3041931022332
98.3413701635788
98.511661857232
98.5159840601445
98.5083550634738
98.5522032720212
98.6119587993095
98.6620942979477
98.8122278398439
99.0189403968357
98.82509497107
98.4515335937002
98.3851920712357
98.4591009773443
98.3986844255829
98.3824893655922
98.6486384773038
98.9247520384198
98.8198440997588
98.4649992637133
98.2444267670657
98.4223945505618
98.8185421059572
98.7826944541454
98.4588950324329
98.7285735573348
98.9753580922195
98.4825189932729
98.1149432109708
98.2322030496573
98.4124732150222
98.5197392516407
98.5674518390262
98.6280752021546
98.6240061779908
98.6116320609557
98.6872495072733
98.8644773927191
99.0768795869914
99.3751849558917
99.076255257153
98.6379510700687
98.6342401519709
98.2921370549959
98.2687837125723
98.5857241231605
98.0663685610032
97.5878975723036
97.8776292360898
98.2347192246879
98.4429827445249
98.5060817078023
98.8140368157868
99.3683910233926
99.0369474243014
98.0927347406195
97.8795490242778
98.1869209902051
98.800119638166
99.5805726222909
99.1372661077353
98.1065829582802
97.9373587483793
98.1546244215759
98.7268840926608
99.3587253211559
98.7492659151199
97.7882471690068
97.8283739934786
98.2029929209552
98.5065667258298
99.1823378919236
99.3735492691433
98.5067252128301
98.0187371586025
98.7514073044296
99.6775041856811
99.3532076542735
97.8916211310886
97.2813178803609
97.9369818621916
99.0235681198087
99.1922732597915
98.2096038399183
98.0533564411872
98.6084412855024
98.3319399192823
97.9587409907501
98.1381291430079
98.6021575283503
98.8427416809075
98.6011295697112
99.0626282440037
100.319242667334
100.196042443147
98.9749125182078
97.9914752811686
97.0862881389929
97.0737279257889
97.6419265298529
97.9490626377928
98.1499185784121
98.3396832067715
98.6878944164882
99.1924778281172
99.0439287392271
98.5714814306052
98.8236075666238
99.0375202119726
98.7098375372138
99.0761282318005
99.3299758854448
98.1161040617469
97.8310154012512
98.4220163080535
98.0366367736183
97.8840155069037
98.7338458616115
98.8006952279846
98.0708924901455
97.9552289233007
98.4189877390084
98.9216105400637
99.0347030826012
98.577774587334
98.3392475545547
98.4629067180664
98.9643261892231
99.8116529971477
99.9683434453298
98.5991784724044
97.4840648375701
97.5745175649529
98.6415744430468
99.7397479445195
99.0909808081181
97.6943742695418
97.6678807781894
98.1308009955598
98.3676484176741
98.5129027384276
98.6193478934505
98.7713632966031
99.4885160993068
100.006652649067
99.0639338574659
98.0142523096111
98.2065817914889
98.8064123360859
99.5221104395543
99.9077401981636
98.7179481933271
97.5043782148371
97.736565801755
98.5109087022705
98.9987847102969
98.6564104979189
98.0896989076226
98.1121951588931
98.4274910914056
98.6016885515243
98.6883529763256
98.7861913012128
98.8621585333483
98.8828040836848
98.8688624677821
98.9094369593481
99.0852870811967
99.1208723815627
98.8358347284578
98.6502777234633
98.6495612882512
98.8563566424161
99.3322687624952
99.2614036976241
98.5914493394179
98.3450566916144
98.5684885216509
98.6919191119245
98.7399458952797
98.8032424530928
98.8456175150214
98.9640716550441
99.4742619767277
99.6169625316589
98.8077366581398
98.2641178121024
98.6405378578635
99.2280280030314
99.0082072940383
98.443969538037
98.4070919370183
98.5805773793028
98.7211217268238
99.3298966150981
99.5222409671248
98.6970190677898
98.4457912208501
98.9240129525588
98.7540520303104
98.3103605218126
98.6617792876606
99.7490295413775
99.9903923221126
98.791142404973
98.7902335934072
99.3442404055749
98.2034178823518
97.2794053157739
97.8248494424164
99.4398238599951
100.79160569335
99.1173083076602
96.7678088054993
97.3874270635442
98.2072018622535
98.0924152310485
98.3106066007521
98.8238610883212
99.2530987508855
99.485902993594
99.5200893947533
98.5237888098865
97.7299771888582
98.5691350870813
98.6911050974625
97.6736667793146
97.5738224784868
98.1543852572162
98.7486518472635
99.1969396915894
99.0499012101845
98.6791488591543
98.4549765116849
98.8425606086171
99.1636332397549
98.5782328195327
98.2611743197716
98.7136116758795
98.787512771653
98.5060126977384
98.5262867134199
98.7771558870092
98.9211450129422
98.9868235253509
99.6234152865344
99.9582109670179
98.9365082408928
98.5669892490627
98.8820720151162
98.3149878077121
97.9147863414773
98.3056299657834
98.6112313334427
98.6279803158907
98.7362387827716
99.2889296355754
99.6745591376329
99.019085647278
98.3720025363178
98.4785901166624
98.7719068881836
98.9091192267699
98.9216145871423
98.8763380239801
98.9110862702553
98.9323676020521
99.2179882436175
99.7291988770155
99.3708787477334
98.9715088381272
99.6709178757299
99.3450089455839
97.9556737539358
97.745981238916
98.2638250257908
98.547315864198
98.6404090422017
98.6803914559136
98.820156358626
99.2298546579744
99.4216866290721
98.9766921591267
98.9120052750396
99.8088872780958
100.593737224719
99.6751007558929
97.6959060827851
97.1066876145659
98.1669051001326
99.5502249376086
99.5187414447992
98.6939159208877
98.103028015261
97.7102642050224
97.7908767961567
98.2213908196524
98.5252755455401
98.6815365058597
98.8150446357061
98.8646514849241
98.9513058651681
98.9841613478301
98.9011699080059
98.9330235082963
99.5662137742656
99.8187770193455
98.9415030761257
98.2496833241091
98.3514822152824
98.8865837502246
99.6398433603174
99.9092260885436
99.516620943803
98.8456116554982
98.6793127914159
98.3448899985911
97.5468668642191
97.31482586852
97.7770083844973
98.3396704302511
98.5984631390755
98.5108086206208
98.4695894045942
98.6492122779826
98.8383347541605
98.8068787106376
98.7157475703394
98.7443987322971
99.0228820868625
99.2118721711185
98.7844010292364
98.4063350519271
98.7222313411802
99.6245848637226
100.262445042101
99.4392454426029
97.8325342497447
97.5749137415854
97.856105100589
98.0678425669182
98.2971966764998
98.4933060824491
98.6697696884258
98.9948279630578
99.3063714163395
99.0245340677016
98.6288662391022
98.1769024056773
97.8983942368738
98.2853193595766
98.5274522711131
98.773846207639
98.7247994185527
97.8868255354145
97.9331830299302
98.8901604254221
98.7091230713853
98.2500113654259
98.3088251464853
98.0472074904326
97.8858002232304
98.1200121095081
98.3805898142026
98.5132150326287
98.6502582933994
98.5919752314219
98.4584953537298
98.4014145794876
98.3498708814632
98.4699264062616
98.7253370212137
98.5726681007629
98.3637608008834
98.3006559091845
98.1039504620107
97.9933375037702
98.2937934037921
98.9045579310062
98.9517326233542
98.6712254565427
98.2881820245214
97.6681273577069
97.6382126727229
97.9119960444882
97.9867806412093
98.0300544080107
98.2345746470671
98.3334676081559
98.2207951531102
98.2034666354755
98.2684318266922
98.2474066339242
98.2883086715525
98.2877406506134
98.2455595618778
98.1835165935489
98.1763742731342
98.1860953646895
98.2786714995585
98.7019889712744
98.7528752804736
98.4098599622487
97.9572194402203
97.4061705743851
97.361325183613
97.5890077954248
97.7070412300284
97.8076734482141
97.9145573096379
97.7907078735835
97.7466311637787
97.8762814791537
97.9297411978804
97.8761682761543
97.9427445324748
98.0085429237706
98.1214868479766
98.0598394292927
97.7686033416315
97.6788227415029
97.7832360371236
97.9451482162352
98.070680100351
97.949539954997
97.8268472392581
97.6825637506329
97.5612634717208
97.5088548759809
97.5336490129507
97.5984513997023
97.6599515099288
97.6491428647654
97.634938262237
97.7417015575577
97.745278258563
97.5820100908988
97.5252165442044
97.5650592099894
97.6039200336252
97.6129324263037
97.6010276349171
97.6554155800575
97.64702033871
97.5537967334471
97.4775844017718
97.4015720248836
97.312986961274
97.3868950193103
97.4766947339322
97.2724892733532
97.1226226866078
97.1568933136413
97.2626176982597
97.2901053751409
97.2796526156706
97.1950034371375
97.1885565517946
97.2590587309712
97.3324588208202
97.2846553342941
97.208670740902
97.1967446869225
97.2996281629034
97.2889514256227
97.1059830529107
97.0381352150775
97.146918522498
97.1530342793957
97.1112935182811
97.1646483330737
97.1101957755502
96.9549104809788
96.8165027077934
96.7833425244165
96.8037487820936
96.8483591141799
96.9486033359502
96.9341083512134
96.862099318923
96.7838278443919
96.7659145178732
96.7834343442312
96.7693153137783
96.7117501018848
96.7000653111257
96.7475675406317
96.6952816286936
96.6000218787161
96.5997801553565
96.5311457636685
96.4787323277925
96.5724574637361
96.6051693804468
96.4808628083252
96.366826446948
96.3441271540107
96.3737440380317
96.3596696515937
96.3517898703208
96.3896737043582
96.3813429720864
96.2533473683438
96.1965208251546
96.1782051074963
96.188814237859
96.1404642243458
96.1240900950899
96.1395299095393
96.109559947924
96.0118274090442
95.9866003022927
95.9713675691932
95.9943024712093
95.9773234058376
95.8610719352299
95.7786503333759
95.8107766033572
95.8328324288808
95.7732707335187
95.7320964767679
95.74561720863
95.695702319956
95.6082819145062
95.567583221626
95.5461796235131
95.5251003141282
95.5182660475358
95.4544652905119
95.4984046706147
95.6233170674438
95.522632715421
95.3023497362468
95.2171205222065
95.2035461512362
95.252198380322
95.2374457597323
95.1508254716953
95.1250365067159
95.1024576963052
95.0239729836632
95.0363169492775
95.0076934443548
94.9726534305963
94.9876336382633
94.9733454481819
94.9247172236937
94.8746116696421
94.795260957435
94.7739367507756
94.763262198793
94.7648718251668
94.7417322347103
94.6813407178347
94.602820682852
94.5814293222492
94.5757200665395
94.5241588509624
94.4909728397762
94.5018526810372
94.421507861816
94.3649914890251
94.3180174741785
94.2486201187654
94.1862547969641
94.146873159963
94.1174637585136
94.1087704799765
94.0822651740036
94.0498477289872
93.9822242499882
93.9088034950335
93.8973673116309
93.8777655162931
93.8417466517066
93.8010470648798
93.7379841213241
93.6882967383752
93.679165663106
93.6798284974988
93.6493266158099
93.6251181692508
93.5623110662128
93.4945806839246
93.4860744124304
93.4338512565767
93.366280165234
93.3542818113869
93.3704777945493
93.3740556648089
93.3186281682399
93.2970791836595
93.2865278799633
93.2518631211741
93.2038113152827
93.225620825827
93.2451279374824
93.2072497470376
93.1631611981784
93.1504111669199
93.119578663147
93.0738545331655
93.04095231124
92.9978595925056
93.0033850171935
92.9908244958071
92.9426494945437
92.9275181224337
92.8802566332328
92.8521852253791
92.811444189054
92.7507160551657
92.6940119791777
92.687566406239
92.6801061161539
92.6586311602633
92.6162034955226
92.5828611501365
92.5061501911027
92.3806883255722
92.2948023901764
92.2924741619314
92.3051192154452
92.2707813072285
92.2499950310902
92.22334925206
92.160185145235
92.1012870602555
92.0410654811568
91.9757632977331
91.9209642629895
91.8385406589856
91.7363549518578
91.67203805337
91.6882202665653
91.6855629011837
91.5730420080746
91.4810607228647
91.4103980429506
91.3383098254159
91.2739159515212
91.2078113844412
91.1740714854241
91.1640517987793
91.0996370241296
91.0078085958819
90.9345780952847
90.8997145871177
90.8337019123297
90.744727800072
90.6655577649467
90.6669712333579
90.6206019499209
90.5287071936985
90.4990695129004
90.5258850849565
90.503714325773
90.4945557766949
90.5226583213228
90.5272351052104
90.5139040870787
90.4980434246764
90.5039929747098
90.5297031716228
90.5503861699226
90.5653222999051
90.5605781083716
90.5844667325749
90.6136974587732
90.6426885265976
90.6566664286819
90.6482689300859
90.6395942621002
90.6623937469826
90.7125075648599
90.7265070122522
90.7334983731427
90.7242665908814
90.7554019249058
90.8179410319957
90.7779816166444
90.7171000353416
90.7086704492165
90.7228791906341
90.7072943833242
90.6694120537706
90.6464297606124
90.6329609288748
90.5806666115425
90.5814582949911
90.5670446248474
90.5301954892942
90.5266915921184
90.5413928519709
90.5342894089544
90.5352480732457
90.5187608004365
90.5129910225265
90.513349565965
90.5055905248349
90.4807291131061
90.4875438386227
90.4567649721261
90.3975605677899
90.4081522556778
90.4307227824724
90.409697412054
90.3913512560811
90.3654645019108
90.3956161882026
90.4171884469072
90.3836510877773
90.3482429918245
90.3593158880033
90.3960456378576
90.3822097267234
90.3747070315498
90.3380533978202
90.2727256036638
90.3026653985563
90.3396215738256
90.3573367108072
90.3271417737016
90.2729106964765
90.2942748829657
90.3288550193728
90.3049355193861
90.2963449234154
90.2966793255834
90.333306646072
90.3648202681988
90.4179134111996
90.4580633638228
90.478721505004
90.5051999673255
90.5229996874251
90.5299789025661
90.573970579201
90.5872873934472
90.6142450437989
90.6887102975899
90.7232340601363
90.74682099954
90.7810867510522
90.8397167064005
90.9149357577341
90.9609519629861
91.0207626189574
91.0023778015957
90.9320450321344
90.9791984485225
91.0473932948799
91.0713380599329
91.1266762644603
91.1686196293726
91.1582075063601
91.2025066732186
91.2584477796483
91.2887927935023
91.2998418328268
91.3264453401971
91.3916104311175
91.434013887407
91.4617285518695
91.4657922424497
91.4549835069007
91.5029639929761
91.552296688875
91.558995248758
91.6068192725855
91.6270511758367
91.6508919168539
91.6720736273593
91.6726988788853
91.6991582066571
91.7345471056444
91.7592582389189
91.7904557402451
91.8041473113214
91.8277914345487
91.8767484600517
91.9588489966027
91.9680810036975
91.9294052417718
91.9584776490709
92.0411331131796
92.0413032196545
92.035590841678
92.0980867071986
92.137673216569
92.1728232338425
92.1952546257136
92.2070334945301
92.2626005425225
92.311262043762
92.3203476250646
92.3131870091463
92.3550780857718
92.3758257572332
92.3822666620229
92.395764459594
92.4293165984119
92.4854636520061
92.5353441761995
92.5483433244899
92.5692112319583
92.572758467018
92.5538615809377
92.5980122319045
92.6648754946028
92.6806027561393
92.6925206502061
92.7379455895747
92.7392851207106
92.7289833231857
92.7765422310944
92.8393591713814
92.857605505352
92.8505882329204
92.9133460145259
92.9322157828735
92.8970065910127
92.87692280464
92.9296506777818
92.9900414788908
92.9980912705826
92.9911951493501
93.0184989702811
93.102846223643
93.1510145489371
93.1784728371202
93.1991616594267
93.1887011366561
93.1974447582809
93.2189880237017
93.2313947009616
93.2381081622176
93.2744409225151
93.327049940867
93.3525135853473
93.3454449311449
93.394417149824
93.4379517620806
93.4330304334229
93.4426779753932
93.4341994016983
93.4210945302096
93.4486314295284
93.515945271445
93.5653349911882
93.5660107354078
93.5410727766906
93.5553237414892
93.5997906276711
93.6154547094686
93.6283274112573
93.6580707576198
93.7154321600369
93.7447112873476
93.7512663930908
93.7560513388392
93.7956079215856
93.8167500317257
93.8326510025059
93.8597288798178
93.8323702120688
93.8082289002455
93.8878822339948
93.9438603908043
93.9132793913072
93.8901128769096
93.9040153331993
93.9302822526854
93.9649306143514
94.0109844274015
94.0062555901283
93.9943961221418
94.037560256655
94.0803423092765
94.1032016666059
94.0608920568236
94.0773747432606
94.1669080496542
94.2204252620497
94.1921219256585
94.1628945259046
94.1836308724565
94.2072497511978
94.243122506508
94.2703830546675
94.2727442679445
94.2977661491647
94.3079112835865
94.3249474843382
94.3482760482191
94.378062519214
94.4035584979337
94.3920103101005
94.4040102591051
94.4238310288435
94.4368741800858
94.4581859698902
94.4805078748689
94.5152230835541
94.5350212245034
94.5427946059271
94.5547414570657
94.5903271941003
94.6074051331648
94.5742133601814
94.5861014814669
94.6324928934316
94.6667380343858
94.6884100395101
94.7149087340653
94.7396678362831
94.731801345968
94.7269445906008
94.7514744072861
94.7658479985682
94.7935966214937
94.8161077221216
94.7943047741627
94.7710493368898
94.7939856245433
94.8389427293216
94.8325281832491
94.857525886402
94.8606528001709
94.8421607643838
94.8846413432363
94.9313535248201
94.9565188485261
94.9758508672155
94.9828816305914
95.0111986280167
94.9945249587287
94.9839937951629
95.0303412797067
95.0651135820553
95.0599308712649
95.0674749027407
95.0883638549143
95.0712133575367
95.0653647887052
95.094450807271
95.1120002780057
95.1197442326276
95.1387340970671
95.1831937897096
95.2030921206053
95.1822807320446
95.1948439141465
95.2385478216265
95.2330961614827
95.2210333548323
95.2440337341171
95.2898975587877
95.345441157565
95.3453732023263
95.2862948216342
95.2612662963603
95.3087822815181
95.3687115201324
95.3579209434364
95.3772920094382
95.4002188992149
95.3750863016356
95.3673522937253
95.3806310809477
95.4175030929895
95.4585186802629
95.4757640515136
95.4949618828158
95.4752535633116
95.4516043071835
95.4991654378447
95.5255718010235
95.4859728226532
95.4572225582952
95.4915469825772
95.5313371420531
95.5232025081222
95.5246098436716
95.5508084929121
95.5992034875153
95.6242093553969
95.626887728803
95.630942251559
95.6395000220784
95.6341924660552
95.647688355801
95.6617740067152
95.6909665947235
95.7156950354672
95.7138020118629
95.7110112890674
95.7481773467408
95.7462427782673
95.7356718035048
95.7828863441887
95.7858421747143
95.7626027186873
95.7730376040732
95.7673938195088
95.7799619656274
95.8291547985101
95.8472243065307
95.8313968156177
95.8397746515465
95.8361414305943
95.8306197786689
95.8554463983168
95.8867490360023
95.907471597246
95.9044306584389
95.9068973244639
95.9096219382524
95.8933402928196
95.9251581918638
95.9539777899425
95.9463426432749
95.947694379329
95.9367446951662
95.9486919410506
95.9787558934651
95.984118050924
95.9917292653345
95.9980947488333
96.0069350620131
96.0059434253323
96.0073477192186
96.0026205822335
95.9925493557233
96.0086592702724
96.0161794703647
95.9960533320575
95.9665890078323
95.9731372634384
95.9935785269254
95.9758906437754
95.9421074179269
95.9028058054001
95.8916289311287
95.8867831972319
95.8424038444562
95.7675228092126
95.7677367154977
95.7898181035866
95.7776424256888
95.7558558866305
95.7496409449544
95.761546807535
95.7490979948216
95.7226025929574
95.7227495943073
95.759337180768
95.7845151248047
95.7956671676142
95.7708805902203
95.7259040032126
95.7226527000573
95.7376699759025
95.7281785886242
95.6900490289291
95.6295375113689
95.5795443647653
95.5490428707643
95.5391323356478
95.5218648594703
95.4574810346143
95.419940744309
95.4280490739406
95.4141528350329
95.3950994142334
95.391367655546
95.3561574115696
95.3310631553671
95.3549147230181
95.370622136947
95.3694247651776
95.3578166506717
95.3312826858089
95.3214950322654
95.3211033716641
95.3217538523223
95.3103805063289
95.3252534470355
95.3253918218876
95.2929814759363
95.2871743494866
95.2807391947291
95.2654915526119
95.2488812509893
95.2170677051387
95.1908212743771
95.1623187020915
95.122911152112
95.1015928508991
95.0833385840676
95.0266185153236
94.9845242267706
94.9289672771682
94.8849720304172
94.8399897158585
94.7589887360442
94.6889248748654
94.6433691470362
94.5800033161579
94.502771919806
94.4534974974011
94.4067537308647
94.3483295451679
94.2848061280006
94.2239692977252
94.1889785064483
94.143311233477
94.0825842948965
94.0437807060612
94.0225833334159
93.9899908147566
93.9587974622117
93.9344489802949
93.9334067248122
93.9285064188527
93.8991053460349
93.8526696923468
93.8470363189313
93.8593451676792
93.8507363945003
93.8523917033203
93.8636728619081
93.8791894798515
93.9020427780806
93.9193251872008
93.9113015262387
93.925709394544
93.9538610167221
93.9663889352475
93.9668887225316
93.9762989693504
94.0257641748881
94.0550338605541
94.053551709779
94.0427295727921
94.0151357777394
94.0212106781858
94.0859023461058
94.1216068155323
94.1008797821133
94.0849623367503
94.0720950092398
94.0393841533368
94.0142940559143
94.0366563614897
94.0683109761268
94.0938654689481
94.1065368955965
94.0862393330026
94.0901111690633
94.0990333865321
94.1220432753072
94.154242518067
94.1595926351105
94.1841461634855
94.2020306075516
94.2138132267473
94.2232058005344
94.2463185455671
94.2674477621935
94.2745795065697
94.2852346243357
94.3134396962531
94.3360894226917
94.3366631898872
94.3570297253061
94.3589921865845
94.3530198614603
94.3636896467017
94.4059422781955
94.4435336704216
94.4725795696847
94.4909472250287
94.5239599490039
94.5714224314519
94.6024338001195
94.6122958665348
94.5953926648003
94.6200198095297
94.6958881060402
94.7214801766886
94.7257974309907
94.7517473683618
94.7781889270222
94.7950683137273
94.8148589548473
94.8203352123566
94.8258359705235
94.8468753647629
94.8746598812478
94.8929864422892
94.9045967346692
94.9201227906996
94.9321745999858
94.9577848046286
94.9730796619072
94.9947474494059
95.0161862050735
95.0080298897191
95.0158818248138
95.0444855113798
95.0555669129668
95.0675540101395
95.1015958859607
95.1233760386009
95.1437891923166
95.1514771128852
95.1592865645634
95.187018433291
95.1805392721388
95.1867331415888
95.2058220617492
95.2340632785188
95.2505071268965
95.2471402591506
95.2540052500793
95.2666608824119
95.2804032199341
95.289305169204
95.2907448179904
95.3190359857768
95.3370654170703
95.3216214015724
95.3083946361002
95.3069194317504
95.3420648118843
95.3629008673003
95.3671855579983
95.3905197375671
95.3864774567549
95.3923277636828
95.4030712828304
95.4151686290202
95.423224745419
95.4164155975436
95.4254594851781
95.4383118352654
95.4523540739207
95.476385878122
95.473592045618
95.4607128842945
95.4676172977581
95.4759974721941
95.4951428530809
95.4967826174713
95.4829378801605
95.4866649757652
95.4917736920327
95.4914265837012
95.4963301536522
95.5095881375036
95.5021367812879
95.5207837283869
95.5425796810762
95.5356727351065
95.5474497063187
95.5529545152894
95.535496814692
95.5198787057189
95.5252609262212
95.5423620217017
95.5309664971083
95.5186377100945
95.5317508645619
95.5482311471715
95.5559138054105
95.5673064938819
95.5642450622989
95.5760239886275
95.5830586900449
95.5819513031073
95.5732652534406
95.5775883256711
95.5901812401872
95.5883294016277
95.5781811753197
95.5857329907562
95.6069055628021
95.6018718954702
95.6011136427524
95.6027820903221
95.593559676501
95.5807848451143
95.5718503143819
95.5926924940706
95.6047433179677
95.5940464970523
95.5851060381503
95.5948087308802
95.6037267535312
95.6234350437174
95.6126112039292
95.5891253409824
95.5822213919847
95.595542562134
95.6112033039633
95.6052074888665
95.619734001739
95.6219794062723
95.5989986010361
95.602650312881
95.6095305459211
95.6139442891297
95.6034379515503
95.6038201557672
95.602098807371
95.6083866961011
95.6175612578562
95.6252772225718
95.6249036337387
95.6396694737141
95.6479527310925
95.6451716901987
95.6488149588421
95.640813551234
95.6403129585211
95.6395655023706
95.6426268235265
95.645074604506
95.6406894753083
95.6522240871559
95.6588575513138
95.6677186612764
95.6656249518035
95.6653315850033
95.6840837586898
95.6927824832197
95.6903139160718
95.7078982329011
95.7069010542195
95.7008500310298
95.7236625368144
95.73350659248
95.7191917071329
95.7267725506976
95.7414182307206
95.7452672431527
95.7462897426721
95.7484591962742
95.7425163711778
95.7323434000299
95.7341708982888
95.7506399336132
95.7605664688614
95.77809663487
95.7730242940389
95.7662460201369
95.7760750663788
95.7984437955307
95.8170161916723
95.818748747949
95.7952140399599
95.7960174240788
95.7995099184524
95.7907277396356
95.7972222376734
95.7928507694601
95.7753289820234
95.8018363960407
95.8276010836974
95.8167684895116
95.8046075335058
95.8134620838491
95.8197899067746
95.8124561411613
95.8071443081306
95.8162951591667
95.8459817796242
95.8531739967486
95.8368306231374
95.827431119891
95.8389830311233
95.8481831579689
95.8404532306187
95.8296114680764
95.8251837649548
95.8421424317357
95.8479223965227
95.8549529327824
95.8605461418811
95.8788406104915
95.8844224795983
95.8834043168844
95.8900046694451
95.8980906652354
95.8871165273033
95.8872955284317
95.8985877509398
95.9030766101253
95.9078839773189
95.9209550554344
95.9295670383374
95.9416124053069
95.9554226984295
95.9746653489047
95.9748051639018
95.9750986537478
95.9707691771777
95.9691327392565
95.979404468986
95.968860263933
95.9588586840324
95.9855460746577
95.9813064043388
95.9740352478405
95.9791733335006
95.9875525962236
96.0104346660189
96.0096613601783
95.9927756127859
96.0179779278034
96.0354870748805
96.0275403779648
96.0329287984029
96.052136003547
96.0596370789435
96.0607194668199
96.0502148264832
96.0459186910611
96.0737880422422
96.1173565766792
96.110426208853
96.1044034252162
96.1239225173324
96.1220727797241
96.1145113228695
96.1304791057244
96.1359821869254
96.1382828069949
96.1367738042501
96.1326428159395
96.1204111661168
96.1240256885196
96.1418476609835
96.1736754085723
96.1739573307866
96.1864965113654
96.2090682032158
96.2050568752818
96.1648930685709
96.1778990347177
96.2408458563865
96.2484264985345
96.2317942460836
96.2091681446552
96.218032455639
96.2619864495495
96.2568408026029
96.2356374858559
96.2290118480389
96.2430596655777
96.2538631943571
96.2368922703502
96.2171028401416
96.2399484343888
96.2431163372062
96.2572272143887
96.2897266612688
96.288506883099
96.2654643798247
96.2801723083907
96.2951262727315
96.3056951045558
96.326863797148
96.3202474231213
96.3013102259864
96.2869774682009
96.2680640337483
96.3015719912966
96.3132479314051
96.3080397040381
96.3173434145648
96.3139474884616
96.2807888327942
96.2716818128203
96.2866676505049
96.3123254297531
96.3408576627128
96.3468894634727
96.3245859514628
96.3133973527417
96.3227240270699
96.3465866432457
96.3254595681848
96.3202922246931
96.3454734639757
96.3403113421557
96.3204885103897
96.3314771931934
96.3197110748179
96.322059316449
96.3207661502727
96.3146039260348
96.3204197243413
96.3613501025059
96.3743951154025
96.3592095010321
96.3470516243422
96.3372498398488
96.3011696033353
96.3107382599519
96.3446545337403
96.3506901185692
96.3471125312367
96.3349176951877
96.3192739097356
96.3427010549779
96.3432501326629
96.3634228932153
96.342757606008
96.3374631923713
96.3578248153155
96.3517251969658
96.3466677136626
96.3586735299749
96.326372430604
96.2974781706219
96.2988980142334
96.3548241653482
96.39449936513
96.391993403849
96.3674618348825
96.3635456120534
96.3714555378884
96.3822331382941
96.3652070379078
96.3674363358155
96.36874799803
96.384799622683
96.3582577235387
96.3528630183941
96.3778648139048
96.4074329983222
96.4047791551409
96.3885811083529
96.4034691967602
96.4210605433857
96.3847698986845
96.3767713230987
96.3864839585388
96.3877212463709
96.3887051053279
96.4026552971766
96.3886433144459
96.4220784728547
96.4489295226858
96.4201101664513
96.3701260576092
96.3813207372793
96.3900932089892
96.3998158961369
96.4010623975568
96.4019982701754
96.4229284920516
96.4482512788479
96.414018876129
96.4302254752914
96.4405389361
96.4140455855185
96.4026621698654
96.4373954920315
96.4552456044504
96.4569277844681
96.4373368370826
96.4381719387715
96.4301267489045
96.4278715795039
96.4126189019778
96.4147995906292
96.4566008426585
96.4989272488763
96.4545658130316
96.4353455422174
96.4211474381036
96.3971171704643
96.4028701693831
96.4650265306491
96.4600300733139
96.4279377493905
96.4094318291396
96.4120559509537
96.4317631184126
96.4727390710104
96.4631287183089
96.469818245507
96.487246380213
96.5109021047345
96.5158093931476
96.5359422862356
96.5360376798028
96.5246172937043
96.4802262526822
96.4595607584349
96.4797225831549
96.4609644699312
96.4241120042719
96.485567824897
96.4934915036304
96.4777379203109
96.5018327802682
96.5475818914911
96.5307295993951
96.5316139499472
96.5144181606048
96.4727839374518
96.4382582845956
96.4869637132247
96.5138206229746
96.5053400099161
96.5077965373977
96.5463019634056
96.5228633850716
96.4843642025723
96.4897820328938
96.5305538784868
96.506219173647
96.4888852919265
96.4926301321136
96.535185213065
96.5312359191012
96.5180441635993
96.5000539331811
96.5249627699016
96.5426705433991
96.5742180815328
96.562953477403
96.5714238890996
96.5668520419156
96.5396938667708
96.5145608173017
96.5470523218635
96.5355948755727
96.5231879145873
96.5445273836523
96.5601765336515
96.5205920088494
96.5261482656606
96.5259251371504
96.5667186326503
96.5516634722855
96.5217963515117
96.4838445796979
96.5001466557722
96.5008555422035
96.50421372199
96.527239982705
96.5575883717749
96.5381902793812
96.5475383357693
96.5449655911009
96.5331768470041
96.5033234681537
96.5011725415725
96.4893288053679
96.4948651717926
96.5073201760894
96.5458215879214
96.5099183748374
96.511902639688
96.5063203885562
96.5087220654694
96.5172912831322
96.5398313217233
96.5183652572912
96.5127291539475
96.4933945689256
96.5107779075754
96.5178168225122
96.5567467941328
96.5695938246479
96.5863105893084
96.5814069455596
96.6154209276125
96.578042250946
96.5692597809695
96.5747615171079
96.6083618029893
96.5977136910282
96.6009929845176
96.5352383534745
96.4801066700184
96.4341790695303
96.5576391709525
96.6410003616516
96.566178219658
96.4166791374029
96.5683180355131
96.6458520695112
96.460521086742
96.4452550850102
96.6573094276784
96.4923943826789
96.4416234795416
96.4450662118818
96.4329510691023
96.3871019235571
96.3391340479664
96.31760824921
96.2602965582734
96.1316287936399
96.2431201531698
96.4368815878404
96.6262479532082
96.6827836394732
96.7477494097117
96.6049203852054
96.5934902634812
96.5083566349802
96.5413255072512
96.4688685474674
96.5005766675389
96.4179165585008
96.4849472101347
96.4665961632878
96.6040054606106
96.456465594401
96.4983790827906
96.379127917015
96.4835826609389
96.4139369968378
96.5778680418484
96.4605446197646
96.5332403450833
96.2814757740281
96.3749328061791
96.3608735287863
96.5993870772383
96.3835809666059
96.3832661362065
96.3041307226586
96.4819403440777
96.3473662927206
96.2912977209824
96.3655365499722
96.3873347000149
96.344117054776
96.2906644657653
96.5310136234469
96.3406854949465
96.4695527677849
96.3502748381899
96.4863480898673
96.3371337052264
96.510578009055
96.419790509406
96.4732436655391
96.4846844878319
96.4536736694306
96.4739364555178
96.4726683012402
96.5305769955931
96.5219124578977
96.5118885270126
96.5861869085044
96.5625020932321
96.5972079261435
96.5470074461792
96.6008109097223
96.5900836093813
96.6152766151321
96.5846704288724
96.6069075132605
96.6353680791835
96.6630017514478
96.6498157180317
96.6360752514396
96.5835556985481
96.6561288691368
96.6985780809289
96.7289622558674
96.697989853445
96.6940876892371
96.712336020822
96.7620012881174
96.7342615664562
96.7892702640517
96.8174020906972
96.8546753941443
96.8616369571416
96.8910844903163
96.8818466406924
96.9270172143129
96.9329957090015
96.9551624280892
96.9783762538515
96.9522130408428
96.9040658933816
96.9885716202911
96.9907231023034
97.0040270019815
97.0215152019538
97.0456345880354
97.0067826170394
97.0150995413091
97.0006149609119
97.0229187284915
97.0385229131171
97.060595913776
97.0351647080819
97.1127522456888
97.1298585732277
97.0797736205129
97.0668097442555
97.1772341478826
97.1799897847618
97.1788773838414
97.1714807332812
97.1766392310866
97.1272855919067
97.1011943157459
97.0927254405136
97.1520464628511
97.1528973220261
97.1561960824457
97.1659239425037
97.2342368433774
97.2142531509347
97.2487251850035
97.2854128072814
97.2743489354646
97.161458800429
97.1524907427502
97.2526434455619
97.2744628829306
97.1937996822971
97.262542149094
97.3620983556875
97.3560025789263
97.2919566358348
97.2631089090297
97.2422609362622
97.2991055744466
97.3135033350033
97.3426987806522
97.3248750014915
97.3359364874663
97.3708411402459
97.3656280176945
97.2638541917251
97.2530374065327
97.3183785128194
97.3960109219417
97.3808129777239
97.3855204383899
97.3383854891241
97.3323545829699
97.3393206904803
97.3338298189607
97.3315640446965
97.3558071593675
97.3867399832782
97.4569580465534
97.3953612250337
97.3599452214571
97.368747358494
97.3147846523406
97.2442586587599
97.3259887547361
97.4034400858253
97.5072716097447
97.533019459466
97.496640041744
97.5295062144158
97.5681310926966
97.5416208680123
97.5956943257621
97.6079674734074
97.5765591034746
97.5319021688213
97.5559039198591
97.5076668614741
97.5369908830441
97.5808611918976
97.5787389856072
97.574414045224
97.6619327608515
97.7794286343246
97.7832619172338
97.7887124087721
97.817968874942
97.773531994284
97.7725368700136
97.7015617396763
97.7107871095739
97.7539478006728
97.832637118939
97.8519133417582
97.8186192599706
97.8358141359609
97.8456604694545
97.7263811054492
97.6955579992833
97.7527820196882
97.8595148362337
97.8771046824367
97.8271123086662
97.8882878205108
97.9808214269558
98.0044716510393
98.0522790472362
98.0549877943334
98.0918569732219
98.0938001008908
98.2433452582353
98.5263383347156
98.6383181209692
98.4519030749269
98.1512921020679
97.9859478715499
97.9913230823174
98.0327073961269
97.9092334993646
97.7067845682855
97.7142257177933
97.7892268523573
97.8414789545762
97.7757267856323
97.5853608181607
97.4256738290271
97.4183631316961
97.4419754592102
97.4632657437285
97.4388997780604
97.4240365518572
97.3894097973246
97.3239942839029
97.2827885198063
97.2724584046489
97.2504791249311
97.2669507868618
97.3116763823019
97.2971288428421
97.1783128469244
97.1113888470863
97.1027430079008
97.0630475793297
97.0195702342392
97.0363946948658
97.0425256136677
96.9870130208804
96.8990499195553
96.8772486856621
96.9173092506863
96.9467488310675
96.8962411533392
96.8591745508413
96.8844093322952
96.8657079911804
96.8313500513669
96.8136117180815
96.7721750919133
96.7883989317099
96.8049637496284
96.7615751520022
96.7607818299201
96.8007087259448
96.7810873580628
96.7446178495858
96.7699051795424
96.8290442780687
96.8561777729539
96.8607266075609
96.8465631378697
96.8209814723642
96.7957611400582
96.7743376771142
96.7877276576653
96.855801562053
96.8771092984307
96.8188639038833
96.7851238741601
96.7641170739056
96.7410600262825
96.7564512168037
96.7687910114842
96.7333802392577
96.7631400046287
96.8150545806767
96.8112034555395
96.7578912773393
96.7099199486734
96.7756516494033
96.8484156064259
96.8347519904347
96.8146389299027
96.7973746495474
96.8080689679634
96.8981548267838
96.9273859882831
96.8875471889034
96.9059773802472
96.9625188372634
97.0050501031521
97.0137409159117
97.0517826435645
97.0692759353389
97.0038191181691
96.9818744832809
96.9829402033293
96.9897564937986
96.998400798012
96.991988598805
97.0012231519513
96.9813119123904
96.9432273367802
96.9589802765751
96.9712203833267
96.9319506137737
96.9376427971362
96.920806091563
96.9534729383137
96.9698335880123
96.9530230821709
97.0330805403179
97.1025088254444
97.0795428181867
97.081801591385
97.1373574430538
97.1078671807766
97.0506649589956
97.1195712648166
97.2156913844111
97.3025574423612
97.3374127300671
97.2888425279728
97.2179704323754
97.289738356894
97.4315935209866
97.4356123654829
97.3756940207639
97.3972920029614
97.3510208434454
97.35289409908
97.4106810486876
97.395179782259
97.4893664151006
97.6600199327546
97.6942999224964
97.5426026900738
97.41558904663
97.4360642839586
97.4716980879166
97.5704730570398
97.6027283926734
97.5343089615607
97.466700131601
97.4755814829276
97.4252748975174
97.448778152436
97.5270892966669
97.5554222858814
97.5415648999349
97.6017423766571
97.6013205339106
97.4249900281613
97.3473696703481
97.3886661736483
97.4273972207791
97.3237481396446
97.2539885228001
97.3316394150661
97.4233590576201
97.5331739609262
97.4824808820182
97.3956615069235
97.4405376459229
97.5567175321882
97.5268142888684
97.4341919814789
97.2840725230785
97.220064465267
97.2953917061892
97.3026292557139
97.2518557213577
97.3469994086509
97.3432323134285
97.2752064575224
97.2393167828387
97.143940211884
97.0681011634511
97.131394421129
97.290655748612
97.4117536639247
97.5296712826964
97.4666345473206
97.0171785220615
96.8941992446122
97.0308893203054
97.2445197546169
97.2342310369124
97.1868775633485
97.2966652674387
97.3869795627735
97.2560497669933
97.2620297866656
97.4286366189607
97.5401239173901
97.6189798507779
97.655764960046
97.5307295362508
97.5301579498182
97.6191395480507
97.5931231886456
97.4883181567306
97.4536852004831
97.4063164762449
97.4693364082649
97.479824442833
97.4604047798541
97.5373940827055
97.5243668366678
97.2073747263698
97.0927167660707
97.095411371832
97.0599027345929
97.1209527444052
97.1550722133149
97.0909964248872
97.0735613212587
97.1460437663727
97.1328091358964
96.9890964445828
96.9659503887423
97.0272317494282
97.0115144212507
96.9050225415952
96.8800475080944
96.9503868518024
97.0290645897681
96.9772305391179
96.9168206233465
96.9246004021509
97.0363387191289
97.0681839638732
96.9676802745661
96.8913070981474
97.0745208744972
97.1965069538101
96.6223345556711
96.4890259557755
96.7144918576114
96.7638185042174
96.8116403868897
96.8337058360362
96.8921804920543
96.9313632694976
96.9500152182925
96.9408750587152
96.9224230368412
96.850115508211
96.7738376913992
96.8760557601964
96.9317775319975
96.7946897328834
96.7578158588973
96.7954862031683
96.8468969293059
96.9822457658432
97.0253858524633
96.6874346519156
96.5347265398619
96.6642463345385
96.8009353853727
97.1173226037856
96.7708159816945
96.3470527264408
96.597408533052
96.6680455984334
96.7305223321564
96.7780401612871
96.8081924402436
96.8364382486137
96.8780877697211
96.6730654332576
96.6881293944571
96.6489894644526
96.6329001569166
96.7114837791819
96.7851022452235
96.7624757915524
96.7582542501859
96.7491356378694
96.7248657355846
96.7350697436344
96.7426113861138
96.7373749207498
96.7746970760557
96.8371450421046
96.8143548407151
96.5839081314413
96.6450117067797
96.7606489110817
96.7922360348651
96.8844633475513
96.8786011140026
96.3706065802854
96.416724845477
96.6106537971317
96.6523544164032
96.6900585949217
96.6644928580186
96.6312799039483
96.6625576066879
96.7058551859216
96.7391178818128
96.7373383218305
96.7153643899328
96.7383654806119
96.7193437391262
96.6629636645428
96.690567418545
96.7254832101675
96.708183332139
96.6876045406629
96.7611273791346
97.0219892504498
96.8962997855302
96.3117015832793
96.1767926294622
96.2194483079851
96.3462946108343
96.4540124238665
96.6002140036323
96.6382987946333
96.7074102477919
96.6589418335138
96.6701821368891
96.6858405922467
96.6839907250793
96.6526805304722
96.6764029878701
96.6389597610555
96.7211624276216
96.7393378650378
96.7341213169643
96.6814753436261
96.6948916658712
96.6866851752418
96.7975895745555
96.712984061004
96.4754355153548
96.5789891039667
97.1243918795429
96.8505455135466
95.7237391475685
95.9911661148166
96.3109766330236
96.5022060337146
96.6253788922161
96.7065396412512
96.7665448644068
96.6079138430976
96.5360683668334
96.5975712284515
96.622986735296
96.6239242201228
96.5962183676591
96.8852832337632
96.9892235917039
96.2154288479292
95.9482509054036
96.2809169802849
96.6783281602926
96.9267510131714
96.275004961544
96.1912727728921
96.4737243713235
96.4347658743529
96.5292853851143
96.5675021791242
96.6135527258855
96.644655858872
96.5873482826134
96.4843682038042
96.570024528536
96.5791582271303
96.6338198174188
96.6283835083844
96.6568665464002
96.543376037486
96.1967821520965
96.3603350303641
96.5268101789503
96.4186807105391
96.4925192703745
96.5236604461618
96.5652239092603
96.7115687817856
96.638300955293
96.2576188066705
96.4224667952767
96.3756929323443
96.0601588299352
96.3395649907009
96.5844506270835
96.4561218018286
96.3172328352025
96.7024926417798
97.0766083286547
96.1079700821244
95.8245783977489
95.8017073275602
96.0676885197631
96.3561264623093
96.463810920236
96.5924359337052
96.7707645142307
96.4168163681361
96.1963272046676
96.4639314240878
96.6340461496684
96.6637447998297
96.1776552296662
96.2138892200446
96.3405376210682
96.4905737528425
96.6321150273918
96.3989715364327
96.3507559848787
97.0551249723432
96.7704311551073
95.7109181718533
95.4369748678911
95.9145104799349
96.7881098281683
96.2697058794863
95.7855898337719
96.2635676504502
96.4281953217209
96.4940213697889
96.705775260649
97.0517453465085
96.247018306972
95.7677214222675
96.2387388875416
96.4411429939309
96.7957460228766
96.5596419290548
95.8936679363015
96.1721309631352
96.4687045481945
96.5979553707631
97.0627066446325
96.6774220467067
95.7282774424032
96.2942126848716
96.1123656630005
95.9484236436582
95.9574659501907
96.0784795639738
96.3866757309144
96.5437827996029
96.0304327039418
96.0690957558857
96.8163397109183
96.8921455831291
95.7168707615877
95.8805277528878
96.2461516706533
96.5175530996051
97.3180901866885
97.1800470631632
95.449714431458
94.8550258061738
95.617413268955
96.4527431314747
96.1661115422003
95.8970053759093
96.2899639326502
96.4469706057095
96.5012643188876
96.5472541463064
96.6257605241019
96.4244790113181
96.2517924903469
96.3797200680521
96.4737268465345
96.9457126344946
97.1102994703315
96.1408905028494
95.0469010765837
95.7340620443679
95.917015729227
95.4036783546193
95.7540972709713
96.1173065671795
96.4309766324299
96.3759218812655
96.2194612943954
96.3584986572937
96.710224795412
96.5497509855465
96.0750694699925
96.1424546749214
95.6212416518275
95.8841523705715
96.8274237981835
97.6443442939681
95.5816221509341
93.9164607877944
95.3361512019928
96.3312395388643
96.968519233923
95.1064818204339
94.6717886243926
95.6849593825337
96.0575837736657
96.2801750393839
96.4451184331606
96.1860717575517
96.0787179901201
95.8831869650888
95.885768218514
96.6083066488281
97.10880101628
95.7024164801356
94.3121145769808
94.4132692260177
95.5392149496974
95.9191426121625
95.5017570478689
95.645553209405
95.9771840872736
96.3194298941625
96.8036643323928
95.3659698279671
94.8816132347267
95.7049364895571
96.104315334137
95.7442336132866
95.997303416054
95.9241124025075
94.6270210244665
95.035110594644
95.5071344079303
95.768736444397
95.8771083104565
96.2770566617052
95.8586975043926
95.0521173067599
95.2809772328703
95.5164571372348
95.6394376054083
95.692787753938
95.6724559741414
95.6933546542475
96.0673488819507
96.31366168187
95.9973886675227
94.0383628247399
92.7903324349326
94.3183621738865
95.2667856013383
95.88371688608
95.6156041368995
95.2313038417522
94.8437355804931
94.0003958937211
94.688761273773
95.2749645392584
95.3887514300196
95.4179058594234
95.4134833055348
95.3851056559461
95.5762604518705
95.5580833353949
95.4653851546138
95.7742566315109
93.9790212622104
93.9519268790068
94.9027074313194
95.269173132492
95.3932213513572
95.4862336327334
95.5716574787427
95.7050284333424
95.1221820484517
95.0119779161586
95.3837182279004
95.7971423223215
95.7594684889569
94.7472283078842
94.8474750290481
95.2769015267474
95.434417973955
95.5620285967906
95.9304057435201
96.2829132697357
94.7908884755422
94.4458593002865
95.2490612108336
95.5159292395968
95.6573321258235
95.7011977942441
95.7834129994864
95.7604244040218
95.5623029960518
95.6565187362344
95.6810689665212
95.6571539069871
95.787875908315
95.8354239988685
95.8132279136248
95.7385633247756
95.8196572044361
95.8191379784792
95.883833108635
95.9086515686357
95.9507218650024
95.9633621514427
95.963387692486
95.9512976666002
95.866398411064
95.894662036486
95.9983370803946
96.0000187044192
96.0405747441725
96.0147311575794
96.0384921697097
96.0539740327488
96.0680418991074
96.0682461040056
96.097966986878
96.0981762092437
96.1308207827212
96.1199419399407
96.1350295799546
96.1213666320764
96.1660813396901
96.2888208251087
96.7745238953475
96.3468434183701
94.7803357269254
95.3027924976627
95.8676780916213
96.0807028232326
96.2754771034899
96.7383385365988
96.4180744671755
95.1660626462397
95.4530897128644
95.9788622929204
96.3278322029446
96.319792017349
95.8183787594863
95.9304011748252
96.2421265293631
96.7800040573127
97.2281951332804
95.9879394829556
95.3069618583564
93.7657614480532
94.07984477534
95.7571727469381
96.6181607754674
95.4938052181303
95.3749802840414
96.0752526155278
96.43579806667
96.3712817277605
95.6169576340599
95.8334289969852
96.2029923502519
96.5835700301795
96.6452213777092
95.7567561149313
95.8217929526449
96.3766994832369
95.750865923804
95.8298481030303
96.1863557924282
94.6205253581282
94.0767420234817
95.2384078770344
96.1034290270357
96.4519485406553
96.9052424325021
96.0673519278207
95.2846818845299
95.7254975705961
95.9325858323936
96.4016246035339
96.5393884217876
96.2934161856051
96.1527993182278
96.3994726370187
95.755394030046
95.726412904317
96.6111105306248
96.4618700465824
96.1019728101987
94.9734987792178
95.0095708089027
96.1946494365785
96.7575767380125
95.496415076324
95.3394921725705
95.7493495431786
96.0754699446292
96.5983830070474
96.193267760818
96.0722525960048
96.5256790095766
96.2484213751657
96.3528414558171
96.4196489365875
95.4930831604859
94.2715745268412
94.5934859936769
95.7826773497716
96.4102238487657
96.4507964156954
96.4615693629755
96.7503939992316
96.7166632007806
95.9469319841345
96.6552058034079
96.383676273266
95.4657219622678
96.0202623417606
96.4015811834808
96.604297275627
96.9686762986163
96.720090139896
95.8559265939571
95.6368545822327
96.1346179260011
95.7826811613452
95.7449555780474
96.0916512587216
96.1789556038144
96.1897555367307
96.1875278739607
95.9934087693497
95.771351667704
95.840903218559
95.9233555217459
96.1018248464002
96.181581467945
95.3545203843926
95.5901081020697
96.1260397351416
95.6161469599527
95.0078942278458
94.4719860096183
95.1754967791691
95.56241432027
95.6219708036134
95.6632797978639
95.7799075268369
95.9606567233476
95.1009199628476
94.7289606412837
95.1080770479464
95.1029204933292
95.1621101195559
95.2693434147319
95.1810449092122
94.8708817090369
94.7276904781207
93.2336779562148
93.2002026489689
93.7602041446517
94.2714709305223
94.4857812207125
94.230138095635
94.2761407232356
94.4531194534505
94.6176211727734
94.247425816974
93.878179618716
94.1543286187418
94.2648090806764
94.3383407462942
94.3507218050211
94.3362283065152
94.3222283520063
94.287050110322
94.2624876681484
94.3634200756343
94.7622236169078
94.0074392923702
92.7630191226313
93.3029771680534
93.5385940050669
93.4905628035493
93.3400673733124
93.3910217383891
93.2046971386642
92.7142110748269
92.7100949940057
92.8189328549194
92.8760302538888
92.9894345477308
92.9779521194475
92.6062690296666
92.5147182732433
92.9385055361062
93.2593963639784
93.6532190850224
92.55356726274
92.4426345579763
93.0264413347121
93.2549708847871
93.5778218441357
93.858276685783
94.0584516582159
94.135408300082
94.1550090466206
94.1713572875885
94.244993729329
94.2881319786258
94.3930699977118
94.4679180652498
94.6043845342232
94.3870251857177
94.1188512200461
94.3610809635522
94.4886668797921
94.6064629662522
94.834869609858
94.7555805516513
94.1883441338405
94.3385804482697
94.5723237150268
94.7037623929615
94.6116979575326
94.2037748855397
94.3892682492283
94.77702518299
94.826461255056
94.8695612961014
94.9206949139528
95.0901556959968
94.6755078527467
94.3195701517654
94.5055646284337
94.6025529298713
94.5987901422677
94.5521527339035
94.4628888718431
94.3589713907219
94.2195143195038
94.0431378703227
93.8475789326479
93.6603492681048
93.6433161738496
93.497111358831
93.1987622701816
92.7191430982405
92.5050277516611
92.5909318158314
92.5407040715672
92.5190462507103
92.3551960574899
92.2599763450554
92.36896037996
92.4533469673897
92.5094761084769
92.6229998817344
92.2700874451381
91.9149578254012
92.0491899537105
91.9207611320454
92.13503775313
92.2568784320559
92.2486169306088
92.2727463684931
92.3185610247691
92.255416425136
92.2393668609047
92.3351852156086
92.437963474291
92.5390761215532
92.6351209854565
92.682196722023
92.7172675069829
92.7698133554064
92.7816765584573
92.7475412552411
92.6775099782795
92.571919751437
92.4508332941905
92.344433874223
92.1821247266696
91.7607466626818
91.5205614925472
91.4149041817824
91.3972850654458
91.2495802606928
91.2223442644986
91.2591358421841
91.2131166761263
91.2182313376103
91.2528849232471
91.3451899221714
91.4308831237165
91.5353674780957
91.6253258866778
91.7075570597619
91.7329583238001
91.7306117097876
91.6998522529409
91.6610114511932
91.5707929379954
91.4617859286496
91.3029390356706
91.1121838102538
90.8329459401604
90.6368875303449
90.4342282899501
90.2976819100026
90.2127341093008
90.1164787821833
90.0633211900812
90.0615497387106
90.1717384082693
90.3118131019301
90.447184608575
90.5759162765175
90.7310151177469
90.9364624402235
91.1384124205788
91.3341865156566
91.5254041916421
91.7073942795977
91.8905837461692
92.0645493065998
92.2267033449641
92.3891642660916
92.5371467020137
92.6738226374083
92.7717841666825
92.8687754349041
92.9413956332915
92.994290815421
93.0137034206465
93.0221705148558
93.0410972303746
93.0709470563688
93.0956088294293
93.0740868622156
93.0458562344978
93.0441113632213
93.0220619718129
92.9644563467711
92.8857428630302
92.7874252791712
92.686975418585
92.6170958311005
92.5952109239989
92.6301445564627
92.6735945973746
92.7294732128343
92.7800037246937
92.8206965783964
92.8705080834009
92.9493724654094
93.0094201850702
93.0709848503076
93.1683302327289
93.2388395161279
93.3242889631373
93.4034283280378
93.475475177858
93.5278999539018
93.5829303208467
93.6325938571444
93.669144207621
93.7097272269875
93.7467523302972
93.7580533074672
93.7947339415189
93.8493524071113
93.8953560429763
93.9370613893153
93.9689426285436
93.987767625099
93.9889429086229
93.981149016693
93.9682566245871
93.9529281637691
93.92989836659
93.9078399492155
93.8804056172925
93.8519644729985
93.8502514984612
93.8858168691628
93.9225130240482
93.9583465537305
94.0035154753943
94.0521377335384
94.0878456018114
94.1197918702359
94.148746811358
94.1644760324385
94.1472954063353
94.1229152169121
94.1235607338276
94.1413543989371
94.1906370883957
94.2645170116311
94.3493662380155
94.4430961910615
94.5352676318777
94.6176459287928
94.6989011022609
94.7907646291405
94.8785372683359
94.9612578225737
95.0488068401956
95.1526362737898
95.2452596038211
95.3277213677285
95.403795211011
95.4667001933325
95.5288659033166
95.5890613328989
95.6376410742504
95.6785136826806
95.6986349304614
95.6949173208656
95.6545207224242
95.5665486766493
95.4505423840195
95.3005538194198
95.1128049638019
94.9053706242326
94.7183554871948
94.5832806789455
94.4946358737316
94.455454244916
94.4545636757238
94.4660852011705
94.4863549751028
94.528531486701
94.5812463966622
94.6446998754514
94.7283949762915
94.8265017867472
94.9236313606636
95.0286824551834
95.1349383841094
95.2404298132154
95.3416144946814
95.4400668178879
95.5304170190706
95.6046103548316
95.6664363749716
95.7112996928619
95.7293916433323
95.7508869669167
95.7513101398665
95.7323837139211
95.6982141612834
95.6372663982999
95.5701880256112
95.4984709927877
95.4148921564799
95.3059193455352
95.1703457008037
95.0273552876554
94.8620999875673
94.6517543034439
94.4136192358636
94.1449899739825
93.8207632714425
93.4537722025088
93.020180129946
92.5304383000679
92.002824058859
91.4506633866393
90.876865599981
90.3042697163254
89.7783749992985
89.3290114236151
88.9600663973517
88.680280569774
88.5154443674983
88.4692068856279
88.4992787929182
88.5891488572543
88.7247450997128
88.8761473282294
89.0267697846405
89.1921358879789
89.3720067887603
89.5615652196479
89.7454727094927
89.9232803618665
90.0860736417285
90.2409800543442
90.4040045287484
90.5829283051915
90.7937081439993
91.0419240127466
91.3093305295458
91.5810357539185
91.8465716189392
92.0827372793367
92.2918169046875
92.4568828318931
92.5608768807848
92.6004838227114
92.5754121039505
92.4989385370241
92.3740439904875
92.2236788050733
92.0655987036084
91.9095714475966
91.7483480196735
91.5686610951321
91.350318960396
91.0771249745764
90.7425418461009
90.367923619099
89.99073276024
89.6439389237305
89.3379054220149
89.0696926269749
88.8294344323589
88.5854672049712
88.3193869478952
88.0203703704767
87.6475397229398
87.1914093573685
86.6594335793496
86.0648327674169
85.4398351932584
84.8507275774592
84.3597004142766
84.0134188569268
83.8137198022877
83.729141710811
83.7217848842848
83.7545870707148
83.7921072442564
83.8273910997283
83.8516511789851
83.8717852549977
83.9154510749079
84.0032760607546
84.1375926347104
84.3142590288262
84.5232216707225
84.7552691173446
84.9961793519012
85.2434038533529
85.4893993204211
85.722646557542
85.9412730988207
86.1566524648346
86.3400956300877
86.4759531303721
86.581981669539
86.6616593960682
86.7228708753237
86.7967015143821
86.8628082400069
86.9108916609897
86.9546037316292
86.9812834340089
86.9648165206831
86.8914941643138
86.7661064305404
86.5753012270177
86.3324535583892
86.0586365195533
85.7769076908779
85.5217618635195
85.2981068296304
85.1018618983258
84.91689328205
84.7257036356704
84.5006716910587
84.2266698127943
83.9097736123589
83.5355012057196
83.0809480956733
82.5639235086043
82.0008518050997
81.3670071128285
80.6576120734095
79.891920613984
79.0998294130409
78.321459319492
77.6153243550892
77.0095734774536
76.5128604130985
76.1297448041869
75.8371098798419
75.601917342352
75.4035245693013
75.2604631772579
75.2008898606936
75.2271677691967
75.3362102188565
75.5226558918802
75.7615263851044
76.0508729230839
76.3838157595332
76.7454784062295
77.1175710253263
77.4581146895195
77.7411321155962
77.926470233114
77.9746440467005
77.8953735663869
77.6804380057709
77.3457666416752
76.9242206893196
76.4397786806927
75.9146696501333
75.3921549778307
74.9236390881529
74.5287346643051
74.2068971312957
73.9725409986967
73.8189684950607
73.7273384431403
73.6794106355912
73.6693568690206
73.7097110139515
73.7989485850266
73.9088091341875
74.0064305677053
74.115441200008
74.2452061483221
74.3774351592835
74.4999319578141
74.6128296104898
74.7215191508546
74.8133504296209
74.8736035937178
74.8925524632507
74.8809547706506
74.8685571671769
74.8718423923292
74.9046967048208
74.9583315287493
75.0132522295238
75.0529557153626
75.0659375723153
75.0525912373069
75.045770836569
75.0297515163222
74.9802886036003
74.9025673522936
74.7899353438875
74.6557956196839
74.5135929562821
74.3872316812457
74.2983771819379
74.2569422107831
74.2573859408356
74.2888407820661
74.3444988315306
74.4351617925958
74.5579832523108
74.6767234368509
74.7820795056826
74.8710328701395
74.9414011294445
74.9665359339864
74.9155462680399
74.7955333370993
74.6193572641677
74.4152099189241
74.2341634695476
74.12566462477
74.1081328309443
74.1823878717926
74.34355723439
74.5706403553512
74.8426351284978
75.140535350179
75.4585284659349
75.7726697845395
76.0660736827128
76.3441681418979
76.6071984636517
76.8554648007397
77.0948663456711
77.3120995153192
77.5341907769457
77.759971572863
77.9693798359056
78.1764023561509
78.3715555468549
78.5630622829654
78.7507813353008
78.9507927460053
79.140668885412
79.3334063854321
79.5361947099789
79.7328338884527
79.9385117220349
80.1207046307519
80.2926371524043
80.4776890781785
80.6849962927853
80.876353378953
81.0466650403856
81.215616076393
81.407031608052
81.5963648986564
81.7658965684732
81.9221552512621
82.0775057619015
82.2320082225254
82.4026011545175
82.5637719830931
82.7129083781925
82.8620266263165
83.0019728289702
83.1404773920621
83.2634760445945
83.3843489383997
83.5010434352783
83.5983443267754
83.7058415639018
83.8181069001961
83.9377725922704
84.0394579487797
84.1241238446851
84.2069585171231
84.316787542714
84.4363987349394
84.5275611381239
84.6093715898949
84.6916010040846
84.7901135251584
84.8995739709722
84.9943342360783
85.0739200704488
85.1658836318939
85.2724440491428
85.3728487610808
85.4577322589896
85.5345147722758
85.6024104554536
85.6531808744864
85.681918107836
85.7055196120379
85.7323941966121
85.7371870339059
85.7489942172185
85.7770305045104
85.7703018195395
85.768189963016
85.7612699813146
85.7523776209798
85.7634334532315
85.7698651973167
85.7563783223834
85.7276359879615
85.7112306336426
85.7031281527646
85.6692152078558
85.6348375225738
85.6215287337836
85.6213129808641
85.6351326015936
85.6454878309102
85.6722108779781
85.7007844979239
85.7408337074472
85.798342356939
85.8607622485096
85.954522114964
86.0668766277915
86.1793717108482
86.2852748707505
86.3879780018513
86.5030949666839
86.6109947730157
86.7098760721355
86.8114707736162
86.9199231437536
87.0149214955342
87.0946517473457
87.1725557017322
87.2755312427044
87.3850478380314
87.4939469453572
87.5934468060958
87.6920070640759
87.7612991327057
87.8059239324971
87.8886301206722
88.0017002464398
88.0780186327008
88.1241568001849
88.1797279343868
88.2506005748203
88.325892388128
88.3776339856957
88.4275979687577
88.499691160408
88.5842372035923
88.6541266051108
88.6700008907194
88.7000668506023
88.7691073177485
88.8426321578027
88.8863112280073
88.9073449363214
88.9525593697964
89.001128964598
89.0349303985544
89.0587526643264
89.0957364680884
89.1417948643176
89.1553980507202
89.1888015745049
89.2220963337018
89.2515822819744
89.3188036962739
89.3416362543505
89.3237854900493
89.3470563340579
89.4252605111488
89.4573722981834
89.477943658493
89.5115363749875
89.5121290818268
89.5362887902481
89.5749553411703
89.6105099410719
89.6206241234137
89.6291362529767
89.6432198022184
89.6731118462169
89.6988009075477
89.6862710309439
89.7067576864304
89.7206512736432
89.7274690382332
89.7800390226665
89.8207339180388
89.8058314172008
89.8448752713718
89.8858271647921
89.865339697274
89.8609134668218
89.8563646508803
89.8917096228395
89.9355070344143
89.9562348332853
89.9345674606279
89.9347609238922
89.9574009564701
89.9956114318426
90.035291415313
90.0015581242481
89.9659534186318
89.9854452892904
89.9954583761698
90.0115476299326
90.0400102065345
90.0345898319116
90.0412285081697
90.0412664131119
90.0340690543286
90.0294247497238
90.0264540413772
90.0540831420895
90.0667070085814
90.0895182903576
90.0837276113164
90.0587524581994
90.0668874631515
90.1133809620615
90.1245341834927
90.1292769528993
90.1458482558302
90.1018319343227
90.0883365468417
90.1250750607698
90.1533753002378
90.1715407526806
90.1731919634093
90.1332535029127
90.1166340111621
90.1362590415958
90.1272537915556
90.108611942093
90.090025584558
90.0612089600435
90.0524630010815
90.0756070941378
90.1203714690639
90.1169528945481
90.1002870533036
90.0972467877103
90.0728108068493
90.1086241154385
90.1021432301727
90.0171354584814
90.0624381068461
90.1226228222506
90.0387966834778
89.9820749727932
89.9884274128344
90.0453757212883
90.0801425440164
90.0642198783397
90.0075848313524
89.9579213777285
89.9218891157902
89.9093233901831
89.8678110378503
89.8334044017907
89.8057621154332
89.7846279017125
89.7563588910975
89.7442298634926
89.7067995886314
89.6881117804299
89.6247203046066
89.5944281211498
89.5329982217496
89.5514503084669
89.6168471489569
89.5825020078966
89.5303008431826
89.4716446550641
89.4189368292768
89.386294130597
89.4274059088583
89.3852029621265
89.2910592711554
89.3313803855325
89.3076998620883
89.1916672870286
89.141504541991
89.142395038967
89.0820495211482
88.9669230801423
88.8920494100059
88.8244610726657
88.693169088376
88.575882822326
88.5187004225273
88.448601880005
88.2702036064083
88.0778437008652
87.8608105685226
87.7079316497591
87.5518751772264
87.2498567260172
87.0155165492619
86.9393678163146
86.7656273157911
86.5373242070265
86.3119777049655
86.080055768665
85.8450938975695
85.5719941808019
85.3609513635362
85.2950744183504
85.1904920530786
84.9889248994331
84.7661492488919
84.6166136415919
84.6409739786258
84.534666086899
84.3406908937857
84.3213494968635
84.3314414561774
84.2242424189698
84.1192018990198
84.166515085492
84.2580274156346
84.2046875960645
84.1533552211303
84.1283631614072
84.1005738463803
84.1637404090269
84.2100997875817
84.2085982920995
84.1567058212953
84.0904756740044
84.0948564548434
84.1237638164537
84.0610780685525
84.0833557355883
84.2355958728708
84.2077908167059
84.1673834729188
84.0956788859182
83.9865648404274
84.0029209637796
83.8387950320817
83.75048683244
83.6689575887031
83.5031544288818
83.2471349132744
82.9283468711269
82.5425806979741
82.2854055849422
82.3521568544078
82.1879294221111
81.6976908570821
81.2705908652361
80.9818713812075
81.0750636427911
81.0342735631692
80.0820867424355
79.9768043725032
79.9215874954993
79.655861362731
79.6746155502445
79.6904281277793
79.4249050244828
79.5226238392782
79.6739827728628
79.8879173441708
80.2433066266927
80.3414291748449
80.5096470387833
80.5022339054861
80.6250184246419
80.915563818542
80.9785311073993
80.8192667143841
80.9144261881487
