3596
4000.36533379555
650.420452594757
1
128
2
98.2896680051429
98.2887275859173
98.2521712362554
98.2499077259388
98.2416188555021
98.2381964060676
98.241317310324
98.2408285747868
98.2244682274461
98.2536093108189
98.2639291028244
98.2830057590131
98.2720842119603
98.249838492783
98.2398567520429
98.2408548428742
98.1994699716112
98.2109296357325
98.2290215628814
98.268122035605
98.2625746338886
98.2722437168609
98.2778368748612
98.2664098654234
98.2407906770476
98.2561809505424
98.2425632315113
98.2530622343139
98.2798988664002
98.2740631705485
98.2226282641819
98.2265387575698
98.272111010968
98.3189902301361
98.3092836891853
98.3207750380415
98.3411872340981
98.3059150420048
98.2490419664575
98.2454432340218
98.1880943181841
98.2228594361773
98.2385401140067
98.2320479537074
98.2315447285924
98.2689321965315
98.270253345854
98.2486712578447
98.2530589465213
98.3493386173109
98.2653554991647
98.1899164395621
98.2232627019348
98.1684485060977
98.1034658494079
98.113015833726
98.1893631700886
98.3409321753522
98.1911342956722
98.057161797383
98.1058577233575
98.1725980076129
98.239716617685
98.2440664302794
98.2260671710182
98.2528587977445
98.3101902080174
98.3334194458745
98.391371637079
98.2656801908158
98.113310561242
98.1623481553122
98.1273125114938
98.0945588249544
98.1322420673654
98.27911128575
98.4361215916364
98.3204781742694
98.1042048157163
98.0745160369956
98.1586205201826
98.3567874787666
98.2859466106518
98.0894685608994
98.258739901138
98.3182659300712
98.1037557344048
98.0439995702287
98.1011942832362
98.1557636568543
98.1778551618636
98.2244338387331
98.2737808797165
98.268505393726
98.2467932856251
98.314458702431
98.4536403339431
98.4785030284229
98.4902623775237
98.4147370414008
98.17064733505
98.2881083331098
97.896871052939
97.9599613144069
98.2310353058261
97.8779183289861
97.7415973978894
97.8337428858359
98.0189064960597
98.228446214693
98.2720082085022
98.2877572525297
98.5538938714291
98.3802854799861
97.9254174585204
97.9371212948292
98.0481589095002
98.2731686154188
98.6966910246243
98.4996857342807
97.9158422735671
97.939195762961
97.9691707974491
98.2370542037595
98.5483234264862
98.1878407951193
97.7351041011884
97.8481890131314
98.0141182215887
98.2021754435755
98.4959616025476
98.5847912829965
98.1139148095298
98.0193403714891
98.2499704599391
98.6554746245789
98.5696870601191
97.8815959715355
97.6074453696647
97.8613935157261
98.3382855781064
98.4579999067007
97.9466413060396
97.8533457468236
98.0950363447089
98.0309604843658
97.9143702255437
97.9905116099798
98.1809339461909
98.4194672451119
98.2291560754026
98.3690097741867
98.99256053767
98.7876674260274
98.1879474673204
97.9169786395235
97.3303891046366
97.5298676232676
97.6614517394347
97.8266362707862
98.0314716054304
98.2272184029223
98.3252791105935
98.5705082075766
98.5028404410315
98.1748455451905
98.3678078877424
98.5470927486879
98.2617059736171
98.3600593893909
98.5276040752777
97.8781520159048
97.7956288466026
98.1975124576494
97.9097424460952
97.8459789803629
98.2939241628137
98.3660506419497
97.9273461597256
97.9858275323582
98.166064474024
98.3956909542643
98.4649112261029
98.2236435733416
98.1229275561499
98.2635065705104
98.4375143661373
98.8024379588173
98.7919998511707
98.1994142566469
97.7242745336194
97.8210273252097
98.1793031003123
98.7804925146597
98.4369370556639
97.7575018696465
97.8295532222217
98.0814970624217
98.2117282849805
98.2908061866835
98.32295037238
98.3869992745717
98.6521699016536
98.9645092279749
98.4592975755565
98.0260173506763
98.0944124554668
98.3757031979399
98.6941090767508
98.8773796998215
98.2803754851655
97.7630955713274
97.8838102019633
98.1284104690831
98.425675939942
98.3122904956147
97.9548437720725
98.0444576163291
98.2137398248702
98.3233270065167
98.3636053815432
98.4161537698647
98.4293567815301
98.4396679426919
98.4686523908518
98.5375094789193
98.5784058517486
98.572301923941
98.4098112763809
98.3464291600619
98.3752703219012
98.4460058973248
98.6581040029149
98.6294970880408
98.2768483579611
98.2520847211575
98.3036450571089
98.4079450852901
98.4236319690416
98.4385091348891
98.4287378927587
98.4961615110134
98.6976452095196
98.8751858018687
98.4320383016854
98.1749101740196
98.2620889788924
98.5451849872838
98.3971971610173
98.1503716574011
98.1890473848047
98.2740553573911
98.3450865512383
98.5993167004378
98.7137618309951
98.3699686433296
98.2737761912723
98.4357946845921
98.2336076843575
98.1584094338481
98.3293143121267
98.7106072747375
99.0126702527543
98.3873683120532
98.3752991992282
98.7612761557872
97.9969398123762
97.6699784255271
97.8242302851237
98.4128817920329
99.14668005005
98.4704872113391
97.4742999505009
97.7393640839263
98.0377521719923
97.9981167164571
98.1934629514979
98.4379641185547
98.6337871621063
98.7991065502672
98.6470678051503
98.1495719820933
97.6226435435215
98.1849151450406
98.1113489849012
97.7079741788557
97.9033204584271
98.0820758383048
98.295846248786
98.5488809944138
98.4808866424716
98.3056087279811
98.2382679119419
98.3762315652861
98.5681726547461
98.3018887771728
98.1533556206978
98.3314963330024
98.406648997538
98.3248697269558
98.3291332667669
98.4354113379554
98.5669711142201
98.507619221205
98.8068254485927
99.1387422211137
98.4757596983585
98.2246682401793
98.4389029263696
98.1163605500696
98.0313432517414
98.1934974790961
98.3172027277253
98.4577394029055
98.5129057328554
98.648002485862
98.8164574960205
98.5172219851861
98.2773412010643
98.3802726540215
98.4159705130368
98.4882995069446
98.539169625384
98.5628283301548
98.5634971624468
98.5863078412339
98.6516436474981
98.9250210200948
98.8169297672107
98.4918517303958
98.7958894681292
98.6325620760127
97.9540829590184
97.9520143722564
98.1617364480475
98.4077046509457
98.4235251452288
98.4368847617964
98.4958164775777
98.6702280871052
98.7113649225842
98.5256677890961
98.5219243343664
98.8189135735198
99.0770843334591
98.8748557677437
97.9966123276874
97.6867986955278
98.058222945917
98.770646085781
98.7305024427554
98.3073262765597
98.1315748507442
97.8031958611714
98.0026315776161
98.2118318487773
98.3436816507087
98.4255958586917
98.4791994613681
98.5082526977478
98.5307310942463
98.5499821713362
98.5513809955589
98.5544521559598
98.763339340441
99.0288074112854
98.5248892405478
98.1701992545673
98.2700270993741
98.3886947026845
98.7408959849251
98.7643227188106
98.5379781480065
98.3961177665143
98.1629358593047
98.1858734758288
97.5558627416363
97.4871184193665
97.8199372787686
98.1194778594188
98.2237239491163
98.2425683922813
98.2195520254008
98.2829960965202
98.3906318918402
98.4563773849551
98.3772694958741
98.3739938770175
98.3942492361089
98.4935459124097
98.3009194356536
98.2157790942387
98.3258050658742
98.6530297409687
98.8733671518416
98.4970005982185
97.8089731551781
97.674872486819
97.7679024363399
97.8002866711018
98.0170352739865
98.1270440013668
98.1790657145099
98.315837440134
98.4973986954295
98.3284213440589
98.0826141126119
97.8857852845603
97.6871875773221
98.0279187765308
98.0575968154353
98.0180894564007
98.1252914452796
97.8401604131825
97.6770549149119
98.0396135606634
98.0836538153779
97.8534253201545
97.9060197452263
97.6752781445278
97.6718780342901
97.815501327007
97.8804345697633
97.9042802166367
97.9760219260763
97.9909441795156
97.8424532858383
97.9321838891854
97.9116563874532
97.8956825612632
98.0016890628019
97.8488842519782
97.7195185767133
97.7954074646041
97.5474178318364
97.6000299664165
97.7598602294928
98.0240245880387
98.0762060604249
97.8983813836962
97.8115522642296
97.4406353008817
97.3953970028105
97.4977410654321
97.5222040633001
97.5967023912826
97.6562792926486
97.6888059169294
97.6352380367363
97.6437856789697
97.6804248786007
97.674816741714
97.6340987530743
97.6655149597453
97.6543064880112
97.6379154209732
97.5965367351309
97.5992571163038
97.5537923847332
97.7184756804377
97.798804446806
97.5974777936296
97.4230645685177
96.9901029871409
96.9614583868648
97.1801083977143
97.1943939780136
97.1971361176358
97.2383498887468
97.1795234438059
97.1373418393902
97.2873777429546
97.3702472048749
97.3680054339228
97.3486261287813
97.3692270730728
97.3393472652443
97.3134753976448
97.129650270442
97.0579987447976
97.1109796307268
97.181389004339
97.2433750689343
97.1580847818612
97.0871850943413
97.0473169732093
96.8718250800413
96.8844088061345
96.9236727768003
97.0029619160822
97.0143470256561
97.0263431150516
96.9965799748222
97.0458325504546
97.0408068323727
96.8769766523493
96.7943823807505
96.8537363197357
96.8392593855865
96.8619629025497
96.8594761034195
96.9057465396049
96.9035010721574
96.8080824897921
96.7079057179015
96.6608863358638
96.6876643922636
96.7226963429503
96.7152163465884
96.6073844275866
96.516911418304
96.5859278362517
96.5882812126225
96.5613670627986
96.553591295682
96.5644084252588
96.5462400316633
96.5614108819189
96.5544418643859
96.5275597373314
96.4448618996759
96.433454584238
96.454561727282
96.4814927873231
96.3464540304907
96.2816366776005
96.2831370322638
96.3192186275124
96.3106205785109
96.318532500945
96.2552936623418
96.1690191799056
96.0954323737751
96.0782817884419
96.0729871827757
96.1004235955043
96.1044309684711
96.0397695214603
95.9898242690922
96.0191988524482
96.0006172994354
96.0136396153476
96.0052698382235
95.9602490597466
95.8868634387895
95.9104798036093
95.8785041114611
95.7917491890464
95.7434144791623
95.7423866021273
95.7549704394149
95.7845933423876
95.7640878247928
95.6755978684322
95.5910327747634
95.5721933353611
95.552272726634
95.5519424255255
95.5320887957734
95.5214609809013
95.4946732288746
95.4346977251781
95.3716117030809
95.3976284170291
95.4102896899388
95.407090759346
95.3611280480777
95.3191129989666
95.2325322880874
95.1858805200282
95.1415658550658
95.1246156798664
95.1049944679532
95.121648780496
95.0825236153229
95.0364473500248
94.9925355390196
94.993070985115
94.986305391923
94.9818475557231
94.8885698752392
94.8323997086598
94.8314367900296
94.8114708406407
94.7512218266891
94.7256530781068
94.7123766147245
94.6830933022487
94.6178239972975
94.614879521506
94.5643922836839
94.4351410248968
94.3868854885883
94.410808545251
94.4065732359371
94.3392948163742
94.2525697023453
94.2751849345453
94.2376528654654
94.1977744208314
94.1847297336252
94.1818076492533
94.1638449221886
94.1744875679896
94.1131364995341
94.048381346527
94.0034855997324
93.9861139212781
93.9648196254282
93.9408277112115
93.899307754971
93.8535500485836
93.7734941043631
93.7224939665575
93.6887793371203
93.6869431500312
93.6284112894366
93.5596682351644
93.5216462331899
93.5193723956044
93.4472465148505
93.4084215329224
93.3533722927464
93.2686267121888
93.1737946135572
93.198743769096
93.1765211551166
93.1117321094724
93.0525122706115
92.9940123483989
92.9465858167962
92.9578865964135
92.9080496834566
92.8502057927991
92.8326092828788
92.7956597260822
92.7143473881897
92.6927982418668
92.6855503596172
92.6728409194509
92.5948000204036
92.5773252547308
92.5612876565506
92.5456784651278
92.5017635537978
92.4366659396874
92.4221111687915
92.4832990572319
92.4706320103745
92.4116423046783
92.3658693045299
92.3254043231845
92.257461450533
92.2409103422195
92.2403478012775
92.2641037464454
92.2465666475378
92.2054089964668
92.126717742469
92.0972569393141
92.0995650162923
92.0913390256953
92.062127428823
92.0339184981766
91.9402843847182
91.869358451063
91.8552625276634
91.8710056957338
91.8678821506549
91.8391519464779
91.7784530421426
91.7517084019192
91.7186640116954
91.6573799291912
91.5732609107219
91.5724743451606
91.5481698012607
91.5179653947145
91.4567887888772
91.3812233395682
91.3269098535787
91.3053374781957
91.2731769987566
91.2154719834036
91.1323362968259
91.0853149172183
91.0409896413466
91.0039372105447
90.9667995278259
90.9050384676799
90.8003330549444
90.7420537423541
90.7379994660453
90.7266479110519
90.6370217587871
90.5493478789802
90.458923003868
90.3775210342673
90.3082468305044
90.2676446342228
90.1955591933514
90.117191157933
90.0261078237306
89.9677399988063
89.9337799183351
89.880819050818
89.8107690807955
89.7843637518012
89.7510594036029
89.7070740675768
89.6459917486447
89.5863398297587
89.5292357474036
89.5556219525819
89.5552621075405
89.5313386210397
89.4999413447872
89.5238867625036
89.5537356853882
89.5335381831723
89.5263397048056
89.5575095097429
89.5572463223983
89.5944932764389
89.6231629858678
89.6065214836682
89.6043524115088
89.6470129542787
89.6505386018149
89.6786595974626
89.6988320141147
89.7287853281487
89.7577420290134
89.7858558793665
89.7638736528766
89.7537205247956
89.7891415541493
89.7999446137346
89.7811172361687
89.7912143136305
89.7674507284693
89.7668802649225
89.7486086701953
89.7071850213999
89.6748993103489
89.6556938054166
89.6280576121187
89.6438769375831
89.6338332524519
89.6287893757576
89.6275374502316
89.6031846436607
89.551634175213
89.5662711596776
89.5976212236589
89.5857245030242
89.5625273159511
89.5310646814045
89.4830543675341
89.4920883046481
89.4775459715103
89.4481473069442
89.4450980700151
89.4635254199336
89.4546256804162
89.4554732994726
89.4323274327267
89.4246292264607
89.392681034064
89.4044743937441
89.4645095505769
89.4897587892238
89.4900631206479
89.4745517416226
89.4147552901023
89.3825962129467
89.3799365170825
89.422733532425
89.4311149945321
89.4083832396825
89.401972815984
89.4258964946394
89.4348909482408
89.4293516449859
89.4107968047176
89.4375649346409
89.4795154134978
89.5075656815016
89.5182912088558
89.5518181290304
89.5613594456178
89.590629793456
89.6525615632088
89.7106400933299
89.7338190985138
89.755764180543
89.7960169721072
89.8143989057094
89.7980680033626
89.8604081718491
89.9261178021618
89.9441960112281
89.9863589852905
90.065762253765
90.1112868691886
90.1654311932409
90.2116882308476
90.2532477492509
90.2401836564083
90.2441529190364
90.2821776300667
90.3236267454225
90.3665935417826
90.4350700062745
90.4873800849731
90.5256056892863
90.547590606165
90.5542699514129
90.5899723964164
90.6465268716301
90.6838133105077
90.7173728949567
90.7233126360901
90.7397824737369
90.7606164923883
90.815422048112
90.8667878885891
90.8763708778357
90.8809604534093
90.911054464589
90.9471547644285
91.0109053243929
91.0309133025716
91.0153754412606
91.0323947773898
91.0795620099602
91.1043452533737
91.1504000347879
91.1870653080745
91.2245941388922
91.2728125994144
91.2981718611781
91.2794706523588
91.3011015548699
91.3257891123005
91.3953993001976
91.4614601799362
91.4894433633947
91.5042592456617
91.5442456087369
91.5516204012763
91.5167341218407
91.5423673445704
91.6128794013873
91.6606842174164
91.7140505679165
91.7448652207959
91.7563505055827
91.7442224183961
91.760742441033
91.8060932461907
91.8520340132733
91.8811592927938
91.9027966561991
91.9128308631329
91.9718124287566
91.9893118414669
91.9732926778469
92.0350970862172
92.1208251247971
92.1290707446159
92.1254205970953
92.1158462008606
92.1254908895308
92.1631446554001
92.1682856297729
92.1798385109674
92.2326594042641
92.2617594597062
92.2888496230094
92.3032284537005
92.3443294724703
92.3695198133217
92.4024479351849
92.422607679146
92.4391283818819
92.4443666139271
92.4540923037831
92.475742789169
92.5411877636875
92.590343511176
92.6075643744662
92.6008092891225
92.614846842089
92.6337827540676
92.6810557058593
92.7063100404219
92.7338958983771
92.7463715402624
92.759266155442
92.784740599678
92.7797854403017
92.7826228969387
92.8446884601606
92.890659792321
92.8997149226086
92.8838254719491
92.9028561933289
92.931361393767
92.9801594142263
93.00860191344
93.0133475994316
92.9827969273394
93.0051926003741
93.0528121862501
93.0800457595275
93.0975693343631
93.1399709404141
93.1734414828646
93.2088732452474
93.2137170990689
93.2400601726464
93.2489447065061
93.2630393020358
93.2796064210272
93.3054127116765
93.3057240614189
93.3054678478817
93.3272516799973
93.3869097390177
93.4252251930953
93.431110401162
93.4485724699898
93.4742664456123
93.4455256223853
93.4674551693655
93.5216673947875
93.5276497989578
93.533367509702
93.5588146858004
93.5492839293879
93.5856276941126
93.6531497414935
93.6838156273365
93.6733791673878
93.6766000195294
93.6693498376092
93.665075133918
93.6829100027322
93.6913575466442
93.7102964293322
93.7654978761761
93.796885031474
93.8120639819048
93.8223089140647
93.8413713948877
93.8546415955214
93.865513496479
93.8902435358654
93.8988204256806
93.8973812278579
93.9375071475609
93.9691933396724
93.9892338359063
93.9961535591476
94.0128526174325
94.0448802822647
94.0748621838054
94.0973352504305
94.1089428899693
94.0934721880444
94.1016208817316
94.1488181855686
94.1930521379121
94.2078900880705
94.2296726451572
94.2368221473213
94.2396236617205
94.2524701170429
94.2585573830053
94.2791499530004
94.3115549904597
94.3035347810162
94.2861762492379
94.3082734879
94.3442085557135
94.3612191851618
94.4085141132627
94.4352223496929
94.4414239596871
94.4426528699657
94.4503769193511
94.4637978779282
94.4945320244987
94.4974874558316
94.5067404633802
94.5274181145027
94.5536708937959
94.5673121488782
94.5609744277731
94.5555860946441
94.5862601640441
94.6027156975498
94.6302904779526
94.6439468764699
94.6094150834054
94.6273171241077
94.6797943463855
94.7178398518935
94.7418010768052
94.7161285188897
94.6936410145794
94.7413219020349
94.782681799432
94.7971451743293
94.8115757884689
94.792376778317
94.7867226294393
94.8050199250906
94.8194820325274
94.8451935053883
94.8602446882765
94.8777330829845
94.8858919911319
94.883532873351
94.9086033535833
94.9495547646082
94.9621702274734
94.9436511578523
94.9578188128478
94.9695495463606
94.9964579462458
95.0286724367798
95.0381190415097
95.0176819124839
95.0091244593771
95.0363492114863
95.0528380371073
95.0693143320401
95.0777173072748
95.0622977612344
95.0694622830405
95.1085009289875
95.1727272536627
95.1922756917038
95.1636297833613
95.1635248714177
95.2115978887295
95.2192043041956
95.2268799293948
95.245826769254
95.2354046826235
95.2243901408746
95.2492941912391
95.2789941353116
95.3010444688461
95.2862298789123
95.2640634620495
95.2909463882991
95.3287388591118
95.3149254486859
95.3144579186214
95.3340410806594
95.3640230789652
95.3820605505263
95.4069636792625
95.4352540809057
95.4425356607141
95.4198701854512
95.4259017726323
95.4254696386096
95.4289401449599
95.432647113699
95.4475424668011
95.4617803185844
95.4581360270874
95.474723463508
95.5073233971376
95.5275457103338
95.5446561325645
95.5497009997323
95.5336854040291
95.5259509828876
95.5222955386207
95.5230039937942
95.5338071846784
95.5508626147839
95.556629604234
95.5215178898547
95.5263064262427
95.5532583412989
95.5540872145419
95.5373647466281
95.5345831086589
95.5131477274603
95.4848696998861
95.4727422666116
95.4813457729489
95.5126193723278
95.502832579819
95.4647859839031
95.4251614589694
95.3914531407643
95.3697056097135
95.3468187508579
95.3329710490909
95.3066567022241
95.2902478893651
95.2750319571614
95.2636555377941
95.2459461758542
95.2364019224911
95.2212911575513
95.227604520619
95.2512917256009
95.2507219546378
95.2427002524627
95.22525756869
95.1926076416324
95.1874958918894
95.175367660475
95.1845689139768
95.1774439571592
95.1315010645093
95.0932555839629
95.0372705642244
94.9842668854286
94.9623340251518
94.9482196214892
94.9171980487815
94.8912952720613
94.8620852056485
94.8163165639703
94.7742158913772
94.7347528011779
94.727171282379
94.7472959546601
94.7598577177465
94.7497473773941
94.7413961260711
94.7302577976112
94.7165526609464
94.7123617971593
94.7136916104616
94.6845214140654
94.6738272134521
94.6710901322439
94.6567301321812
94.6573854784937
94.6556582210299
94.6206858077255
94.6116517457577
94.5815286759393
94.5408442021941
94.535093236353
94.5236832027699
94.4998371521913
94.4662708823011
94.4312964439131
94.4109779809546
94.363692007212
94.3131385398505
94.2460280092926
94.1797092341909
94.1209628004021
94.0698772101226
94.0147154610474
93.9509541613744
93.8664776035874
93.8163530248906
93.7795576588319
93.7301558131703
93.6545367859635
93.5841351842808
93.520469480394
93.4632844544488
93.42992484113
93.4069379258677
93.3672039914697
93.3258388732418
93.283887449029
93.2710110968163
93.2720119217216
93.2589929052293
93.2440192698966
93.2639689961205
93.2674575067715
93.2483394444193
93.2434505886532
93.2460599571484
93.2559890889348
93.269140776664
93.2729360838033
93.3082673073645
93.3497406049811
93.3666347857045
93.3740679291217
93.3996399304628
93.4105936854338
93.4034220648667
93.4288689922306
93.4619650371616
93.4878479951511
93.500055182618
93.4798151720959
93.4729038166653
93.502393663435
93.503175406583
93.5014073159055
93.500241022169
93.509657372405
93.5040269352151
93.5065406667368
93.5157654325059
93.5152792962741
93.5525685775749
93.5613791300939
93.5589657463234
93.5624310055427
93.5688720817032
93.5845121249877
93.6100367835603
93.6415689543416
93.6678527484014
93.6764884432149
93.6907418051697
93.7064201982643
93.7233904159885
93.7660646141619
93.7841220982748
93.7830651602452
93.8031716263767
93.8228347789266
93.8381739252503
93.8633117262426
93.8956937501919
93.9041059122934
93.9199020630629
93.9542963050837
93.9857474627679
94.0119804182287
94.0548810937792
94.0852278808914
94.1017081790877
94.1469369155362
94.1756280129031
94.1872280689429
94.1956113367782
94.2331620040466
94.2656752140866
94.2853708055636
94.3134194832296
94.3299423259372
94.3657076125955
94.3874114877077
94.4180528315825
94.4435199283255
94.4586361520657
94.4554079675379
94.4708130754277
94.5018262522283
94.5132550419448
94.5305221849707
94.5509733472041
94.5646333351352
94.5883578071361
94.6146601009163
94.6163977632391
94.6205414782967
94.6547034303152
94.6794161838093
94.6804072813034
94.6937367458567
94.6996715035839
94.7027213598126
94.7305309987065
94.7554155430598
94.756390878052
94.7686297484002
94.8089361645747
94.8037548161773
94.7876601289649
94.8153382437494
94.840356077747
94.8645353990633
94.8558318148656
94.8323153951464
94.8691728059956
94.9142250444553
94.9107055875775
94.9153297665662
94.9297097238267
94.903632317061
94.913014775716
94.9421303782555
94.9480619361407
94.9676256399329
94.976102274544
94.9762724270717
94.9715852952701
94.9990142838645
94.9868256157735
94.9830768516649
95.0251929113533
95.0429527759673
95.0364603516844
95.0499512512952
95.062637766795
95.0543877282249
95.0544172308023
95.0615804225175
95.0600143465196
95.0655376852627
95.0897143327415
95.0830672708939
95.0906157474491
95.1235227652343
95.1391774307356
95.1455141103707
95.1338453129631
95.1082224188743
95.0847284956793
95.0899431746157
95.1194534345581
95.1390966644144
95.1405230003958
95.1417709143848
95.1346430272485
95.1471071214025
95.156479738771
95.1704334840727
95.1623680654642
95.1385112037054
95.1559544299275
95.1797848728841
95.1808735598261
95.1774955662733
95.171346286225
95.1826921403133
95.1925604020205
95.2122705682769
95.2287621723823
95.2082386260809
95.1796492221318
95.1712863205573
95.1771671908362
95.1954309382158
95.2025741511276
95.1816440072053
95.1820586722192
95.1936677683969
95.1998501850044
95.206929373808
95.2052996384524
95.2041217016816
95.2183891317387
95.2264873969438
95.2235698533493
95.2247848251453
95.2025801119684
95.1989376877544
95.1888035837628
95.1853334379308
95.1963686809621
95.2151664528514
95.2491611414872
95.2613831970786
95.2502405507223
95.2353959536776
95.2423991513039
95.2574427153496
95.2679121569009
95.2721333745534
95.2563140485179
95.2430718103135
95.2581746351709
95.2745525217046
95.2734495759918
95.2774400565014
95.2647962424668
95.2588105962264
95.2552128935949
95.2541112757389
95.2760467129517
95.2861550158897
95.282664340035
95.2749373558104
95.2784103096605
95.2963460088161
95.3227811589423
95.3324549501239
95.3318744630457
95.3434731491791
95.3504974314233
95.3468874264341
95.3385615758824
95.3409827831204
95.3549172156359
95.3793776463994
95.3817750363646
95.3678831631394
95.3681269338223
95.370673892329
95.3661706521225
95.376482188402
95.4043085666904
95.411939571095
95.4016373934332
95.3911332078326
95.3868342930599
95.4200833722121
95.4329803696124
95.4236431646074
95.4018890671835
95.4228999144692
95.4426309275114
95.4543772971268
95.4533641132478
95.459085144862
95.4569888884274
95.4504868155208
95.4619923703504
95.4846079785231
95.4928320607755
95.5004814151175
95.4872198808367
95.4583814742405
95.4522508166043
95.4844183482729
95.498529923812
95.4870598745037
95.4834697187406
95.4924998982277
95.4944026293215
95.5053146251621
95.5024102388669
95.479888831184
95.4742139380552
95.485121910182
95.4868719757298
95.501230649418
95.510841388303
95.5182205812756
95.5285100649386
95.5264472929133
95.5139438496897
95.5229646470954
95.5278556048269
95.5197642572541
95.5394876632214
95.5599388561986
95.5559681803633
95.5767227437321
95.5820627445726
95.5566271896184
95.5592989248658
95.5741785975411
95.577629698263
95.6079745971048
95.618607519956
95.6382471768701
95.6556961184665
95.6684536552906
95.6602980009097
95.6621761291935
95.6509425113746
95.6613687816686
95.6696525640924
95.6724114841096
95.6824321283316
95.6841998417228
95.6926592099121
95.6922803593293
95.676349138725
95.7067932693366
95.7223232976645
95.7007228852109
95.7162980477462
95.7341131763946
95.7186984393459
95.7457221844386
95.7652071962985
95.76225937996
95.7861657737006
95.7744090175008
95.7697318268901
95.765262060331
95.7597939307073
95.8034888227567
95.8227138620196
95.7986503735945
95.7845075661646
95.771423156123
95.7815111271308
95.792918180254
95.7961479981604
95.8222484819859
95.8644627868341
95.8998797276037
95.8783080454565
95.8806583173732
95.8919325593478
95.8918140471255
95.8891065466473
95.9062215464794
95.9117381204284
95.9258235796646
95.944474638118
95.9417963638529
95.9303665592319
95.9427061186286
95.9345053426684
95.9469708763404
95.9855478565939
95.968369772513
95.9522687526762
95.9643685053839
95.9780710770785
95.9876129810433
95.978246276143
95.9908545163266
95.9981768230449
96.0014571109973
95.9915230000819
95.9880762346722
96.0012441127472
95.9693678890039
95.9561756658771
96.0148111771533
96.024801449146
96.0149829213431
96.0297312127745
96.0527030451703
96.065969584064
96.0869390766258
96.0948941578535
96.1014732031925
96.0644648299234
96.0612715180651
96.0873130994254
96.0984911327524
96.0951188694764
96.1004912114668
96.1081288580648
96.1277959516386
96.1258180829905
96.1112479369616
96.0895604735779
96.1063590527643
96.1068315997745
96.119717445695
96.1130481675278
96.0928263080541
96.0944967472395
96.1207702331638
96.1127788560481
96.1095720920851
96.1211467722895
96.138085687493
96.1452634436119
96.1127505006523
96.0769558288752
96.0961604020196
96.1224147108088
96.1531168865913
96.1610689266566
96.1542599109793
96.1301798069146
96.1307532935776
96.1331078838354
96.1342110032489
96.1077204866698
96.087869649539
96.1383461024998
96.1480950048745
96.1471413982089
96.1409318525184
96.1154320152375
96.1275965532367
96.1315716698868
96.1587174445183
96.1442478155397
96.145026360088
96.165894235843
96.1868646277062
96.1416582651358
96.0863960006649
96.1392230458783
96.2137596792304
96.1889249300283
96.1863107223891
96.1764704759082
96.1634727642386
96.1792570925413
96.2102033044297
96.1866706265828
96.1600360623486
96.1846842757905
96.1961276559884
96.1621810059447
96.1827547009755
96.1817483382112
96.1743989076352
96.1561401835566
96.1514237016566
96.171768643356
96.2143317752736
96.2124989027083
96.2136159110392
96.2271555134039
96.2771125397595
96.2533184255583
96.2063550939514
96.1863081978806
96.1788921712781
96.1682139025271
96.180160682545
96.1651654987246
96.2029013128657
96.2450685113458
96.2654073120812
96.252107932038
96.2298796684951
96.2045564941346
96.224917643422
96.2463092302109
96.2339426947168
96.2196946975329
96.2342155453977
96.2360805324234
96.2567727017473
96.2620901462291
96.2395762570535
96.2506035932177
96.2665356218411
96.2549862747009
96.2500004954553
96.2191324252709
96.2179002985277
96.2298660065334
96.2755453337831
96.280521143857
96.2526283932109
96.2358310908218
96.2581472539584
96.2602589924563
96.2465967539057
96.2225095883608
96.2222605768555
96.2600371035104
96.2973296675136
96.2974536461005
96.30948755139
96.2571215963129
96.2289384405793
96.2549503605466
96.2864144409749
96.2467527051417
96.2449684778805
96.2845377704342
96.2795265082474
96.2747181535057
96.2636747476716
96.2378088700619
96.283451184396
96.35464010635
96.3769875913121
96.3540185105273
96.3060796330782
96.2808017576601
96.3243025162094
96.2993310629743
96.2613947402244
96.2715150894508
96.3226208807505
96.3354793177333
96.3263425330253
96.3202140772937
96.3361769446186
96.316803171249
96.311218117949
96.305247300358
96.3200108838802
96.3179019420664
96.3422864842477
96.3451810010615
96.3527299282231
96.3415632869175
96.3551740319298
96.3416697950052
96.3749259485796
96.4064483341889
96.4400867797979
96.3936753982428
96.3610962323791
96.3642023938468
96.3488815147203
96.3346980255695
96.3313557010746
96.3335603311769
96.3839627094989
96.3688713481697
96.33588586522
96.3347692437937
96.3716214149308
96.3479523294106
96.3272720710856
96.354000153004
96.3951961266107
96.3764516362405
96.3912951380549
96.4102027506239
96.4085745379433
96.3783842125942
96.3410555608104
96.3196653806122
96.3497271979752
96.3691533986718
96.3682634644936
96.326792509635
96.3366836161845
96.3491676004233
96.3638863072934
96.3409269210115
96.3186444638842
96.3181712716006
96.3420320135267
96.3395633751892
96.3381290671647
96.3337122792078
96.3343523757677
96.3195703421987
96.352703466442
96.3603829199319
96.3665870178514
96.3335804362126
96.3170927600266
96.3139295264219
96.3032814095009
96.2680777676113
96.2570501249122
96.2075569761881
96.2194918265308
96.1874263676315
96.160819616151
96.1545081289362
96.1879532744818
96.2008801608201
96.2762245705986
96.2983849802573
96.2520919459613
96.1382835091688
96.1989276002854
96.3374662765277
96.3494698181623
96.1309276484722
96.1492431587077
96.2829454571342
96.2109092437922
96.1055338624739
96.2284107522075
96.2220477884356
96.2473567644534
96.2256277498503
96.207432028816
96.1637818086013
96.1814703565941
96.195372757085
96.1803696075228
96.132940362208
96.2822254994997
96.3612072196447
96.3628054654387
96.3067570801203
96.2666609141954
96.1400742631356
96.1631663882673
96.1458706990136
96.208716046478
96.1656452590744
96.1608762793353
96.107689067753
96.1801181875123
96.1640842339681
96.2531952233105
96.2473783274679
96.3204098087331
96.2361714077452
96.2210765919105
96.1220915003752
96.1990799522998
96.200866412438
96.2755241796322
96.1537440520748
96.1332409131761
96.1129030921355
96.2049755975526
96.1732310915472
96.0943404140714
96.0725120243382
96.1273639734449
96.1360454952341
95.9987049046583
96.1473271527463
96.2074373504526
96.2129082641261
96.0939267748718
96.286935878177
96.1610484252792
96.2330682283245
96.2237323352454
96.2860129255152
96.2256912214916
96.2899055781507
96.2590389725989
96.2878656818838
96.3089683331361
96.3115715384563
96.3229538413884
96.3270194561172
96.3383772139466
96.3634195828782
96.3441745221108
96.4043694392756
96.4064948119339
96.4245448482984
96.3889441817719
96.4472988983614
96.4691071881796
96.4643281094819
96.4513134117487
96.4791552765218
96.483025553358
96.4959027407055
96.4758603370277
96.4875674973085
96.4977293732438
96.5469559875143
96.5292400983448
96.5230256832024
96.5608827046986
96.6036280581168
96.5937329186863
96.6505643801722
96.6677545638299
96.6602706049878
96.6148205120676
96.6284613893095
96.6723038224377
96.7472799994492
96.7359235617783
96.7874088531537
96.8582011070078
96.8866921920897
96.8565760925529
96.8978395070978
96.9071421343402
96.9059709156179
96.883126067654
96.8972697763193
96.9034094937533
96.9369175277374
96.9314346918715
96.9400386461183
96.9737387016494
96.9907828393306
96.9180490751774
96.9732783290304
96.9906991988521
96.9610987806939
96.9320170955675
96.98212013807
97.0143224238648
97.1119251593006
97.1979242370838
97.1716155769112
97.1093945070702
97.0848799405558
96.9857735805229
96.9620050291152
97.0868066213245
97.1549766288951
97.1479372675024
97.1028482986896
97.0736328187876
97.1692058587235
97.2083531191154
97.1421733141406
97.1018773150529
97.203638166093
97.3065673434653
97.2488822173875
97.2363712407032
97.2425948448442
97.2204630314869
97.2718121603898
97.3302845845559
97.3139763696801
97.2710767192735
97.2834728173501
97.3301799063244
97.3862986971053
97.3513050115818
97.3024214760353
97.3119514700974
97.4058103552136
97.4325680291209
97.4084512363423
97.3522119450433
97.3787366845446
97.4225178064996
97.4055863693449
97.3258342254092
97.3647770553486
97.4161780598588
97.4936594938019
97.4968377404793
97.4768998979227
97.3847499226119
97.4281916443111
97.5409161482329
97.5167244151695
97.4360640376013
97.4777508473296
97.4833020859961
97.4859598544672
97.4961731913908
97.4697945358474
97.5032355625004
97.6361080910214
97.5871949187249
97.5808476958603
97.6702365633258
97.6264604715336
97.5438518833142
97.4914197264367
97.4984987772151
97.6259510600066
97.6681358909082
97.694106124959
97.7090943123118
97.810788556426
97.8557445400905
97.7432887929222
97.683669992391
97.816990870053
97.8274998138072
97.8439276409301
97.9080154738519
97.9419795956091
97.9259567001535
97.9674546871483
97.9812834855392
97.9642254988598
97.9837887080799
98.0113331247727
97.8853563260012
97.8642354173164
97.8705984728776
97.8278032569498
97.8119086775578
97.8770910222563
98.0593104543642
98.1853341488007
98.2387486962409
98.2641936228079
98.2539266423024
98.3163183939169
98.3278174016745
98.3221266448216
98.3364176586136
98.3126385395616
98.1729358853376
98.270972686381
98.476947278231
98.438014094497
98.4436422723294
98.4622302730966
98.3647866667867
98.2265047030821
98.1367694785196
98.065706552915
97.9775930944488
97.880345894618
97.7339698840394
97.7740582010872
97.7284772510025
97.7199296410623
97.6315103344114
97.522614655894
97.4462236901573
97.4928289046823
97.6285274577405
97.633033043571
97.4640730531695
97.3715954291316
97.4673319606748
97.482185826396
97.3725832911374
97.3832378247685
97.420037916548
97.2901730549036
97.2272286045828
97.2387224239036
97.2257647393176
97.1903107277094
97.11241431503
97.0416397897372
96.9663763892281
96.9936044528098
97.0770272923876
97.029811804592
96.9127897863297
96.8599982080863
96.8580699133411
96.8655611684776
96.8359378858719
96.8606249661647
96.9243467691195
96.8888146265589
96.7699414332344
96.7127942392896
96.7665350902667
96.7911473620945
96.8046415751456
96.7877107393142
96.7545498765139
96.7938310736462
96.8376398793414
96.8115374380758
96.8058497851992
96.8078800678334
96.7408190848758
96.7387480108057
96.7402595585206
96.7539568123313
96.8334840825477
96.8447714398726
96.7513398354529
96.760605560674
96.8615995937285
96.8598637963926
96.7742494343789
96.7669220027203
96.8060079425229
96.8032678860505
96.7496787374663
96.71323747419
96.7186381497607
96.766177520057
96.8146227183749
96.8363362756613
96.8406465920354
96.834777208427
96.8658467670709
96.8491137465374
96.8004169168681
96.7965042223471
96.8409970180712
96.9030058191968
96.9414917632004
96.923041366794
96.9235753777287
96.8996388475396
96.9377459971079
96.9831440610492
97.0258629318147
97.0573726600732
96.992121150063
96.9726287356308
96.9707532293035
97.0026432153075
97.0525138173708
97.0173012721317
96.9815272428499
96.9488562625672
96.8983652762064
96.9481678475817
97.0296168489768
97.0774404590913
97.0139598645096
96.9431363966171
96.9352095029948
97.0312723104177
97.1024710054662
97.0322395025848
97.0119377154457
97.0456133479329
97.0554993750822
97.1283750009042
97.2207540565924
97.294486180601
97.331709467802
97.3439929531314
97.3783856991494
97.421497724649
97.4862884704122
97.4780318686286
97.4595803849358
97.5062492564228
97.4548938475723
97.4129712952252
97.4937517124016
97.4928468379341
97.4086236881914
97.4078680489829
97.4699832430997
97.5452487464882
97.5885876518313
97.6246522590751
97.5121611729002
97.5661313765772
97.6611531166123
97.7876494077502
97.8829659903835
97.8036135208948
97.6814017057163
97.806533318851
97.9990576276981
97.7448975923369
97.5119863461517
97.6505850548565
97.5884492933787
97.5565184500616
97.7518444752521
97.88905605645
97.842419415876
97.6118555553501
97.5151482890329
97.6247017060569
97.6797002298918
97.6294698744216
97.6272876658595
97.6676400438105
97.6595685733122
97.666120206421
97.6699551812253
97.6172513287855
97.6249008895275
97.7211842345421
97.5522872562246
97.425531956314
97.4075915521342
97.383717594797
97.3549766786747
97.3557404122982
97.389349218961
97.4518605658818
97.4102604787422
97.3349008425905
97.2773911672238
97.3190738849834
97.4691595789713
97.4425922125828
97.2430538621387
97.1629451829435
97.2454798116332
97.330563278136
97.3776069049785
97.4090780844104
97.3923430507618
97.4409091763942
97.5080662539356
97.4949180521305
97.5465359443951
97.6207156878861
97.538565949658
97.6739130830185
97.8100406915278
97.667799519651
97.5307022927006
97.666618760984
97.6423582693951
97.5830569928905
97.6912449293353
97.7700800418257
97.6851127995867
97.6404882738441
97.5072071701672
97.5014949340741
97.4349680219456
97.3895491496618
97.3203181365788
97.2895156531489
97.2947165373975
97.336788409049
97.3050905827301
97.2708388669191
97.2426203479624
97.2685804069587
97.2576684626363
97.2169366042918
97.1936019416086
97.1561030764305
97.1422231137916
97.1107277103145
97.1271474322571
97.1614805063676
97.1690312719508
97.1303335535716
97.1190669063508
97.1828820198025
97.1815763344919
97.1664665828011
97.1081556853518
97.1405982136685
97.0467464782129
96.782267397651
96.7178974345334
96.8307348537598
96.9243091627732
96.9510171109069
96.964668094547
96.8982364703902
96.8868191239377
96.9273027234343
96.9022522422221
96.8669779833723
96.9272788901007
96.9395051840732
96.9373765173108
96.9724789459663
96.9502181727044
96.9144493020531
96.8852024327368
96.9272973313899
97.0162399218673
96.8913176050301
96.6783467979716
96.6992287370977
96.7488638945674
96.8531817100957
96.9528550654842
96.6922560808751
96.5957590791525
96.6856715445874
96.7929675799931
96.8126133775931
96.8282800305025
96.8480749902582
96.8518779959432
96.8344984932576
96.8176993953641
96.7577473914362
96.6906157728159
96.6966486420368
96.7372663890515
96.7959259261703
96.8003579866494
96.8054523482814
96.7575483718455
96.7201408977035
96.730274534124
96.7577222693952
96.7644117945591
96.7648142338274
96.7887269912752
96.7366091911985
96.6937164981937
96.7060347860388
96.6846257268018
96.6728901377415
96.7848451525766
96.7349600456581
96.4676226253792
96.5467111906462
96.6830590524693
96.7266588504826
96.7167337743456
96.7173499919212
96.7087557871546
96.7451452391465
96.6875282222565
96.6844408017454
96.7109388321971
96.6924168230971
96.6936545298559
96.7101623020398
96.6991481836709
96.71699324081
96.7207561617372
96.7231980383627
96.7077352740459
96.742933115698
96.835587070042
96.5972531759112
96.3659942308354
96.3514245979977
96.3590545586279
96.4447026940569
96.5149481356567
96.5744071590999
96.6687414986161
96.7046332540186
96.657535029926
96.6746923118138
96.6384930962422
96.6032663813206
96.6429464908748
96.6839589957298
96.6614823649339
96.6793354371894
96.6552240408302
96.6647310499239
96.645891642357
96.6475409076559
96.6320371610915
96.6757459447747
96.5601614119657
96.4567335232302
96.5241423956466
96.8138569182738
96.4092725144581
96.0653514322164
96.2484334471961
96.4025002500585
96.5612117873584
96.6399672891223
96.6851511057463
96.6615416015657
96.5440279594029
96.5658931892966
96.5959703703124
96.5810689874946
96.5325404858895
96.563987078156
96.749584922776
96.6004871210737
96.1075820996261
96.1172091530642
96.3106205792758
96.645263983114
96.6063507759616
96.1836454444625
96.2911014823517
96.4702305421467
96.5223724549362
96.5224980132723
96.5499516991635
96.5978897908879
96.5740558497622
96.4718006924178
96.4998087353124
96.5523045491407
96.5519169095474
96.5876737346803
96.5683454991894
96.6109200636975
96.4669059011595
96.3019252020895
96.4041318906052
96.4255750872453
96.407224368164
96.4736005792311
96.5145091961937
96.5252376944015
96.5910232700758
96.5040611108986
96.3067367838824
96.3561265032431
96.2222532929222
96.1427086848368
96.3517467100899
96.4463373012696
96.3547627960509
96.2873426258199
96.5965686413294
96.530192806698
96.112788162966
95.9989798547637
95.9241003463147
96.2278218857965
96.3654724461569
96.4503836728944
96.5191938342724
96.6460237137318
96.3140918585289
96.2801281460582
96.3657129739699
96.5404712544754
96.4158759249109
96.2105719749153
96.2241148728456
96.3167991413144
96.4333607002105
96.4997519068978
96.2175639275851
96.3312930060802
96.573823071008
96.2372025756406
95.8373440518659
95.6380752935923
96.1066316981801
96.543283797142
96.154015495826
96.0958888222248
96.2689708062026
96.4296105870663
96.4049980663262
96.5611184482198
96.5188683838704
96.0174814448537
96.0670681902283
96.2504918757447
96.3358904948107
96.5147643113556
96.2463481471667
96.0953958349722
96.2308353612304
96.358999452552
96.4501944907906
96.5770562830483
95.9935436189431
95.9602569271743
96.0785623545968
95.9044824616029
95.9079047934373
95.9775119322494
96.1574620328905
96.2967906999491
96.2986692315891
96.0164493965554
96.056293503211
96.4375164476025
96.2877684457084
95.8406495853412
96.0767524742547
96.1410341319643
96.3552203283947
96.6061498212662
96.2571095403345
95.3955683714817
95.3426176883958
95.8725284974338
96.209711000055
95.943222260351
95.997487343692
96.1992716302532
96.2904993435752
96.3113889882028
96.3430464139017
96.3543089096948
96.1854306989351
96.1612069757803
96.1725477899811
96.2739055114443
96.4463100475731
96.3389519423434
95.6776716121459
95.2724488060688
95.7808086058235
95.6213836039427
95.5565219348315
95.851129789825
96.1810102286421
96.3338012349313
96.2073873030142
96.1390883388121
96.2485932707273
96.3959422099196
96.0852977854063
95.9193736258964
95.9567044446417
95.7818345632335
96.0256411552189
96.3697448462871
96.5417306092575
95.1121251788732
94.9879845016629
95.5415353743909
96.1566633037797
96.2226975328954
95.1769008384068
95.4065544303068
95.9484772019508
96.1147336005969
96.2816082455735
96.2593637147196
96.0670007496784
95.9538836048754
95.78881956986
95.908249741926
96.2798501500484
96.1101202165355
95.1822813470014
94.593477461367
95.0301810140913
95.7376266402118
95.8544715475111
95.7121632932259
95.8489586461444
95.9065860406619
96.1635216790919
96.1312974745554
95.2785652337975
95.3523238749724
95.7516439200877
95.8724163973622
95.5178750334327
95.8392584708643
95.4296661570101
94.9850968705348
95.2738675193257
95.6061408804331
95.7175785707154
95.7762867074026
95.9256075343777
95.4441317520457
95.183642775566
95.3805010796758
95.5033556283431
95.5873365310742
95.599108073077
95.5488088882781
95.5257496581672
95.6199764136694
95.3793255549006
95.0619848641037
93.7889683989281
93.8415872139191
94.7839244681869
95.3219045282508
95.6068786433847
95.2224642156294
95.0679784193345
94.5847683896656
94.3812421154628
94.949321341815
95.2081173004937
95.2946127934633
95.2848096533921
95.2891517058709
95.2218868638244
95.3346329308686
95.0381466351
95.112536867674
94.9125310712659
93.9438297324503
94.4289253235115
94.9807501135549
95.1966858563623
95.2881053723419
95.3225913734132
95.3998641817655
95.3201430762805
94.9108800041252
95.0383788385338
95.1866804884245
95.4324449257236
95.1512015555535
94.7493363242522
95.0043870792629
95.2145836055506
95.3725259542028
95.4057136993241
95.6324040799528
95.5194641011267
94.6513325269572
94.8885162449097
95.29249141979
95.4937553816138
95.5878353811873
95.6353247082505
95.693978472164
95.6251080002926
95.5066592613175
95.5970219471238
95.5626137788551
95.6257719393897
95.6865948532828
95.7399670796979
95.6898404719939
95.7124944549359
95.7417849015574
95.7534676672064
95.8062396335432
95.8344643220728
95.8865977065771
95.8846945919762
95.8651172515422
95.8312931311544
95.7956073335039
95.9129494343937
95.9669278881188
95.9620339163175
95.9564719161378
95.965653239104
95.9961154771355
96.019031638724
96.0418754174339
96.056405908334
96.0593749887395
96.0640479490675
96.0916234171091
96.0892198300488
96.1034524065044
96.1098134372386
96.1322193213909
96.149452923188
96.3129173931391
95.7061684840437
95.2470722889426
95.7598901031805
96.0200894285518
96.1796476839367
96.246172985931
96.4608662997104
95.9782288567511
95.488383401559
95.8031176178661
96.0813207758819
96.2983115361833
96.1928339208607
95.997037080499
96.1565296214766
96.1883438810677
96.5070468963785
96.3111031715873
95.5321392532053
95.1075042669521
94.3256834638398
95.0499163122706
96.0975721323301
96.3310279044262
95.6646149595528
95.9442570932161
96.2099211703684
96.4231287904658
96.1293291168797
95.8510628578416
96.1203478813173
96.2340846162133
96.4834613411615
96.3407833967814
95.7857381116038
95.9255843880757
95.9798709016678
95.5743589878536
95.7942102772101
95.7119679213209
94.8324816286073
94.9818799217415
95.9045261193503
96.2779316242841
96.4837114507891
96.5845014789201
95.8674710466503
95.7407008675858
95.9244839737426
96.1408190994818
96.462608563032
96.4320327017079
96.1941989400913
96.1501935956511
96.314025156664
95.7416840045195
96.0252991187447
96.3302441479208
96.1588615143088
95.8141327178358
95.2555100073266
95.6071105338679
96.3464489685582
96.3476409990281
95.6418267626962
95.7747527131809
95.8677960162962
96.2447423677146
96.5286077292833
96.1022383839187
96.2042061577374
96.3488630134837
96.1812411874254
96.0922237428055
95.706976445023
95.2389315090077
94.8250258759153
95.3998911389702
96.1763433829707
96.4585660532787
96.4690911730724
96.4364095031831
96.6789625635053
96.4053062941616
96.057578093884
96.4947380071303
96.0399496346287
95.9020308880249
96.2765059291489
96.4287214820549
96.5621978217505
96.642255419736
96.3466514912059
95.791983769496
95.8407652338275
96.1358409717812
95.8196569130039
95.932379079273
96.0972213177931
96.1762251061577
96.1120155211208
96.0811193490389
95.8331932642683
95.7212892908011
95.7906527625241
95.8012168090508
95.9020351749733
95.8120690709129
95.2804982990263
95.6672867406708
95.5978545137816
95.3661108172217
94.981995708925
94.8344418408472
95.3353945787322
95.5189085391675
95.5860758205368
95.5147756839147
95.5564968754715
95.5073094835757
94.8327525413129
94.8753150481698
95.042203550295
95.0497602855943
94.9925169111264
94.9701087588009
94.6318406494865
94.3792606582651
94.0594814825644
93.4501246332995
93.7781758896115
93.968058277225
94.308213525243
94.3611194919145
94.2429279167604
94.2434094215096
94.3034407921515
94.3549116315905
93.9507474934397
93.935947357863
94.1603674326195
94.1974759194406
94.2431381499122
94.2468400622664
94.2306336723218
94.1993159733456
94.1914343032374
94.1448432100453
94.1439800878581
94.2409665667826
93.4950676730751
93.1674700290835
93.5115411684934
93.5384414783482
93.4744728545243
93.3373055985678
93.3025782759341
92.9719361337255
92.7552141367774
92.8725050238147
92.8816212723938
92.8978517952691
92.9324213584542
92.9152845813582
92.5775575232454
92.7332792295893
92.9646097157843
93.2040466459193
93.1788649698249
92.5144389781804
92.8564854230704
93.1381706939209
93.5039799549273
93.7472098919513
93.9395398365266
94.0623112802809
94.1163146498429
94.0926151191287
94.16139476735
94.2240073343719
94.2847093309588
94.3544397342638
94.3972497156697
94.4569229511394
94.1644447822714
94.1227963215383
94.3847744704971
94.4696008142342
94.517829898363
94.6453486051053
94.486082543143
94.1383243286586
94.3342156387995
94.5102910395649
94.5251991586863
94.3169462332102
94.2865477522673
94.5630171521416
94.7199112018083
94.7610250414081
94.7754701552685
94.7919714815976
94.8146677329472
94.3843349050579
94.3373639539577
94.4957990846045
94.5567383517721
94.5069721445329
94.4524855590634
94.3395098542773
94.2509230026076
94.0882706792728
93.9530779832839
93.7538129600358
93.5947515381542
93.5047708867218
93.2817972499427
92.9915266337112
92.7241181714882
92.630142838467
92.5988815142317
92.5138329769413
92.4707602049672
92.2915161846113
92.2695259052866
92.3665721237477
92.4388326337087
92.4445936363794
92.5095555899641
92.1133324734945
91.978762401825
92.0811338954042
92.0171623688066
92.1755644971376
92.2246726011088
92.2371843956544
92.2402442934311
92.2521858723551
92.1819311448732
92.220319665883
92.3160781743062
92.4064699200234
92.489624457997
92.5492152390565
92.5902914015768
92.6460312376213
92.6816873137183
92.6708379762544
92.6423618816391
92.5501588324162
92.4485004316699
92.3092958261211
92.1943734655775
91.9616358972463
91.5961319347647
91.3953926459799
91.3604800457117
91.3903410949909
91.2284856283558
91.2208690059374
91.1886322368111
91.1618414042301
91.1578689611165
91.216181449292
91.2980971011265
91.3865905552766
91.4868077687765
91.5871488058138
91.6572251700879
91.7021676903614
91.7017382640872
91.665933238896
91.5800985828072
91.4943231414601
91.3735591654939
91.1999864780186
90.9770566031288
90.7533733898401
90.5986742154766
90.3783471114666
90.2611545775782
90.1509593587809
90.0645622649145
90.0173011113732
90.0484592716865
90.17514934525
90.3010604844236
90.4441071205695
90.5867675266131
90.7586692315619
90.9625131864508
91.1657782504567
91.3652091129358
91.5581370056007
91.7411084226822
91.9230733988574
92.0944023204198
92.250727329304
92.4123160752439
92.5674582064618
92.6769068436079
92.7678711786492
92.8779656406287
92.9409815770325
92.9707982840042
92.9834068514697
93.0025824432996
93.0153688800443
93.0383559483638
93.0560508915506
93.0386429567359
93.0144411624849
93.0053954319021
92.9781073961125
92.9155072938381
92.8355165144203
92.7530451571811
92.6542561743217
92.5762061336877
92.5659052328511
92.6021605138736
92.629789344438
92.673266814735
92.7069606158807
92.7468041307576
92.7872162797728
92.8533185064117
92.9111431392668
92.9911491389303
93.0851629640351
93.1673617134396
93.2546805509915
93.3437141816024
93.4175533991273
93.4744622053592
93.5353374807743
93.5857041913039
93.637910089828
93.6859940383741
93.7071019130957
93.726375811463
93.7961071936484
93.8480816198392
93.881371923019
93.9126654199196
93.9359528717627
93.9521745224632
93.9696249107636
93.9648107759868
93.9390993225852
93.9090119885744
93.8879343067453
93.8609009126389
93.8374624842566
93.8174231848271
93.8140917200808
93.8361069644278
93.8623506965773
93.9021047336349
93.9484117973871
94.0008706098766
94.0490364825293
94.0786571350111
94.0965613296874
94.107844577626
94.0945158143706
94.0731391126648
94.0723682868872
94.0986272606946
94.1507409520502
94.2274744487633
94.3181856928991
94.3952409443477
94.4784416560077
94.5829250549894
94.6761048935605
94.7523626381325
94.8324123043462
94.9224654290334
95.0093219686222
95.0873383448159
95.1660140506063
95.2560071164472
95.3272810243295
95.373517331867
95.4170735868509
95.4649199413207
95.5084785037818
95.5373861438219
95.5512304387791
95.5436475462698
95.4973154720635
95.4193270775868
95.3105597933553
95.1543086845853
94.9702648938747
94.7805199469474
94.6127871401431
94.4920772562788
94.4180983194294
94.3921858316201
94.4046328510895
94.435644516869
94.4723048372452
94.5295708477033
94.6071088770003
94.67557348917
94.7504266328246
94.8447303634773
94.9443680734139
95.0439461694502
95.1420662598638
95.238986997128
95.3240697751536
95.3975449262158
95.4695084464131
95.5314171385893
95.5703562188534
95.586234047152
95.5906916336438
95.5920266551512
95.5686618517687
95.5289821200791
95.4723964538537
95.4084887910683
95.3396879693291
95.2533419605798
95.1452833029832
95.0202914702392
94.8778736726207
94.7129395453105
94.5304249160094
94.3183655987535
94.0815357761564
93.8075475051263
93.4817880994715
93.1084775607527
92.6864004115569
92.2259152265018
91.7206284579996
91.1956544033291
90.6699174619078
90.1592363299904
89.6905206933702
89.2871833881752
88.9700642450086
88.7501979921821
88.6285299620145
88.6018643603364
88.6536841656842
88.7614521271832
88.8938022274891
89.0354612676473
89.1734387278858
89.3106562433086
89.4594786020519
89.6157669130212
89.758714643996
89.8924216701568
90.0132081470105
90.1197881277431
90.2225628836048
90.3505484190787
90.5167864495073
90.7077385892876
90.9091548207018
91.1164827267342
91.3307879817538
91.5361995420868
91.7043578191014
91.8322198957038
91.9219807920801
91.9613389362179
91.9389081374855
91.8576452718422
91.7372941358197
91.5970345987206
91.4456788506607
91.302260465819
91.1559588520257
90.9820892580867
90.7710178874089
90.5162354185014
90.2057564164268
89.8596832104072
89.5109433998117
89.1819687452219
88.8911169560634
88.646127376748
88.4287577943308
88.2113521454187
87.9673062577847
87.6770911510295
87.3171334056843
86.8742993270825
86.3532321835989
85.7745290983798
85.1745802873707
84.6118752103435
84.1366086354649
83.7933335661295
83.5936959481336
83.5038433591006
83.4844942075294
83.5014075005876
83.5274632426617
83.5570760490755
83.5857313436058
83.618607909323
83.6682558828732
83.7489773815461
83.8758455448775
84.0552576186023
84.2737345750051
84.510946539101
84.7486809048873
84.9908747424422
85.2298151671264
85.4601160869496
85.6748265704284
85.8565461136868
86.0150624575881
86.152681043433
86.2447014579594
86.3133320806507
86.3797547585788
86.4299653906494
86.4838667492341
86.538376574475
86.5648232660364
86.5797518475426
86.5833563899767
86.536131355709
86.4217153699535
86.2617207573916
86.0465065471297
85.7958723136736
85.5577894101487
85.3326167155484
85.1289484035835
84.9616049433676
84.8010054955283
84.6227186387322
84.4162167291233
84.1719573449843
83.8713775058627
83.4955034095421
83.0389036671715
82.5158477150206
81.9517524495066
81.3301595764473
80.6246690287139
79.8773204259387
79.1180649314276
78.3793401266058
77.7035839086255
77.124781555009
76.6610704994885
76.3068240350168
76.0334067131346
75.8236937091511
75.6676368192261
75.5677868261386
75.5366628086991
75.5856134726369
75.7113545470223
75.8938465749729
76.1316794111854
76.4219345593869
76.7395891411598
77.0718381096622
77.3880832895041
77.6671175478641
77.8830878858246
77.9983384724657
78.0000103472984
77.8821467359585
77.6466465699965
77.3198845294395
76.9186224136127
76.4542039124801
75.9621624069619
75.4849417893199
75.0524122271488
74.6895235243558
74.4011157430203
74.1851700482746
74.0364723813888
73.9452144588192
73.9114459434787
73.9164197787185
73.9481753022371
74.0134056523675
74.1009675204285
74.1992980229148
74.303699301429
74.4175172027862
74.5323798429866
74.6396449952066
74.7319510634903
74.8083966848029
74.8658811063118
74.9140266702563
74.9391095180581
74.9371853461574
74.9325586243586
74.9379145937207
74.9595025808536
75.0027493080795
75.0600499940121
75.0947559060903
75.089443633018
75.0665828723662
75.0481314636982
75.0307452940897
74.9926858220818
74.9189218198391
74.8085268612693
74.6893846906805
74.5700403005593
74.4733715734729
74.412701255218
74.3770789367796
74.3792264590578
74.43222369448
74.5106508521636
74.6084911152237
74.7233360613481
74.8281436521825
74.9197768600852
74.9950410928584
75.0345736110011
75.0315003525243
74.9648653148787
74.8316339180557
74.6487403468872
74.4372173201558
74.2388645203719
74.1098021483921
74.076188738934
74.1454124598326
74.2996087508293
74.5148741369576
74.771862250588
75.0544654885509
75.3553201864274
75.6564022388456
75.9489435205091
76.2372979511139
76.5050325496005
76.7656565984387
77.0417947004236
77.2972651110439
77.5224160269708
77.7474438724324
77.9647043802188
78.1779862845022
78.3996693394321
78.6278166883341
78.8532578394942
79.069457130033
79.2793515276727
79.495751603611
79.709389599745
79.9126226599608
80.1128339021268
80.3123110290173
80.5115780836577
80.7137298571544
80.9233331895943
81.1362135274152
81.3273034326237
81.5045763012558
81.6808749345858
81.8500914675676
82.0325588497218
82.2239861720767
82.4047947957358
82.5715742338003
82.722639364557
82.871554849015
83.0116485393083
83.1470725125351
83.2857393344235
83.4156934504199
83.5326039104016
83.6549282568942
83.7769457769142
83.8802108373718
83.9821615420788
84.0813042492129
84.1871150189521
84.2816212285955
84.3567296572759
84.4391258933202
84.5312014549765
84.6109261020678
84.6988785206816
84.8158857142624
84.9195135557287
85.0104783518563
85.1089285328805
85.2057582948393
85.2979156626301
85.400643525233
85.488319191599
85.562997664723
85.6474727307333
85.7323331180298
85.7896280573571
85.8244369738579
85.8427231530421
85.8516614223047
85.8590757683818
85.8567069187186
85.8675326968109
85.8781506283299
85.8707599526265
85.8778567248584
85.8900625991044
85.8828022393362
85.8601980442023
85.8488277540978
85.8257316605701
85.7958974292874
85.7751564798528
85.7447400810155
85.7220098019111
85.7126835575332
85.6964018226538
85.6667217894491
85.6634808630224
85.6575596045386
85.6313388894274
85.632145830935
85.6703925591671
85.718573206085
85.7757234527584
85.8395137628356
85.9064617071033
85.9854420597737
86.0694917650227
86.1498143209209
86.222443242771
86.3312745713475
86.4567312196463
86.560867368154
86.6314798950596
86.7079358912184
86.8112264389082
86.9203854548832
87.0035948845508
87.0686234780169
87.1638143009688
87.2615551787279
87.3590811406286
87.4544136044381
87.5462036139978
87.6331446620296
87.718755312585
87.7993018520646
87.8655461885574
87.9333603616351
88.0025873717393
88.0627724620853
88.1210392705048
88.2068812956987
88.256255273063
88.2949299735425
88.3810258506982
88.4555896240306
88.5254899944628
88.5667699633258
88.6174659024197
88.7027919050095
88.7531129254607
88.7925567870596
88.8668062721071
88.9439901519088
88.9943354314727
89.0285531541568
89.0543606527774
89.109910212069
89.1444858530522
89.1663418679346
89.1991313723835
89.2334491714756
89.2607263586836
89.2798543956577
89.3216021634651
89.3449019886398
89.346851743804
89.3822748823309
89.4212240828854
89.4282885042663
89.4408761345017
89.4790921770183
89.5085777109447
89.5198978714147
89.5305836343119
89.5502564359487
89.600675340486
89.6549990875161
89.6629453993946
89.6682689512808
89.6796178048187
89.7033737467344
89.7394405830358
89.7865863396447
89.8261461018867
89.829808107418
89.8155581391317
89.8109383094803
89.8359452553961
89.8854167960507
89.9207800086694
89.8944424655951
89.8866453877412
89.9125657052592
89.9457714702538
89.9830896651254
90.0053465395553
90.015494755157
90.0165194857798
90.0140748084727
90.0267636800757
90.0136803121722
89.9988633118721
90.0302435862599
90.0496730170459
90.0432926714079
90.0375637734015
90.0497187938196
90.0767165088938
90.0763486646568
90.0792702566712
90.087676411714
90.1031901099588
90.0935103203979
90.0491820793059
90.0679505917006
90.1083139969792
90.1121551417662
90.1349847991836
90.1199110150781
90.086959740615
90.1228116610387
90.1871379490297
90.1972517918846
90.1622710963038
90.1102701545107
90.057788140019
90.088988033223
90.1429332336204
90.1770966854232
90.1840878064908
90.1417567390011
90.1324582193802
90.1298684633452
90.1263523753103
90.1123140090224
90.1081250473744
90.0993112331526
90.0636239362208
90.0421152894164
90.045571014912
90.0424986505296
89.9940971587131
90.0198298420213
90.0764137361422
90.0674138076391
90.0325287991923
89.973324423286
89.9423388177087
89.9380094481482
89.9050369159222
89.9124951294654
89.9316965612217
89.873724583966
89.8291222995429
89.8104655987192
89.8047765054189
89.8001116171369
89.7964540861645
89.7648367749415
89.7081816455758
89.6857475167668
89.664730647643
89.5940066127099
89.5209464799847
89.5150085555651
89.5184362370964
89.5325810262692
89.4915679214796
89.4462504018723
89.4102001525102
89.374534108662
89.3682039573907
89.337462229718
89.2659503691928
89.2408743431968
89.2786112387902
89.2111568731592
89.0804549977445
89.0834448809504
89.0915009319248
88.9834351293426
88.8995503396909
88.7729397539562
88.7288211260653
88.7319856857334
88.5860005180071
88.4256931977082
88.2843323872033
88.1470317298805
87.9631887422567
87.808054994313
87.6529167257892
87.5056682619386
87.3445976512021
87.1198680034197
86.9334168648092
86.7747902059421
86.6286030930066
86.4280519680033
86.1765789764507
85.9136958612477
85.659561109421
85.4647423227214
85.399423916161
85.3089494714779
85.1114278790171
84.990664737662
84.781765648469
84.6377255414173
84.6407412212319
84.5810211998585
84.4863056801479
84.3483725783834
84.2444057410475
84.2252200237609
84.2140125711439
84.176281097912
84.139793168189
84.1536521585254
84.1973236918738
84.1470239472186
84.0283637012087
83.9620052672727
83.9277110861232
83.9927941514487
84.0435713414766
83.984128156217
83.9675325026802
84.0269214406134
84.1287501754188
84.1951324347472
84.1708175362591
84.0667908899418
84.0741538105804
84.0439048659799
83.9209905536865
83.8184952469245
83.5547325320714
83.2048191237678
83.1272941267231
83.1578367755038
82.9920567636334
82.6954216262875
82.3184344197468
82.2314775972499
82.3026578796303
82.020981178844
81.620373251575
81.213415353021
80.7444053925366
80.7542167907559
80.8778561716559
80.9486997691358
80.7884506653093
80.3537067640294
79.9215974502968
79.8758436127043
79.9302777906934
79.9479707843093
79.8935779833256
79.9236653946026
79.8774584542326
79.874437442685
80.2419819507495
80.6996613976368
80.7935561566627
80.5719939832803
80.8976986913661
80.9331902799806
80.5817541584789
