3596
4000.36533379555
650.420452594757
1
128
2
98.4390722424534
98.4722341778326
98.4385667214482
98.3861323117495
98.4084206365948
98.4538069057096
98.481526718624
98.4324644247107
98.3897466247879
98.3844336312413
98.3753520986916
98.3803312853072
98.4133990825148
98.4530330242212
98.453565387743
98.4216949185272
98.4268915011853
98.4716275309168
98.4613890636755
98.410897608357
98.4425194954434
98.5339303861603
98.5263340219821
98.4434633515356
98.4106626268229
98.427489831635
98.4386106252763
98.3880340781239
98.432244654194
98.4692192652489
98.409493187338
98.382876478499
98.4026053382143
98.4111604924833
98.4188792926452
98.4254249356179
98.5265385171664
98.5051272620128
98.3498457182975
98.3456196086137
98.3808144440136
98.3944710529979
98.4171510871468
98.3639125336583
98.35921452716
98.4288926704544
98.4916347501868
98.4714937675608
98.4788295186143
98.6411759382453
98.5423138137191
98.3481304112685
98.4543000398117
98.3077035447841
98.1216906579589
98.2001994169137
98.4665040997046
98.7780320099748
98.4629310458106
97.9673137526581
98.0856247604351
98.2442364141379
98.3632952452866
98.3721101962255
98.371087102664
98.4177794924903
98.4905954703798
98.5785758159497
98.8250914523619
98.5970138376105
98.1174263246604
98.23400368986
98.2442667633148
98.0826298011966
98.1591666620728
98.427977525915
98.7836933690672
98.626294902178
98.1237878285759
97.9798379693179
98.1532097558004
98.59240260958
98.6064826857745
98.1610792639276
98.5100431604772
98.7336380508638
98.1036149580484
97.8670413020491
98.043511530407
98.1984183854487
98.2739122625891
98.3171959408754
98.4085730053417
98.453464168582
98.4475209537784
98.4882500468891
98.7058797375843
98.9421061894903
99.0878761277183
98.9227189553488
98.312027824346
98.6450852760623
98.0435941579825
97.7890597621568
98.641861440683
97.7568289352745
97.1484840519552
97.4611686564474
97.8745518781034
98.2233794556928
98.3142749602459
98.4989164378639
99.2413393561202
98.8978378001354
97.6227008493526
97.5993188283329
97.941977882386
98.4685496632804
99.5450166095633
99.2343821644589
97.686711997419
97.6894003128278
97.889560876786
98.3887246325057
99.2392663426375
98.5402590187733
97.3166015391659
97.4357067959741
97.7939094884619
98.167129698333
98.898467381917
99.1795003039837
98.1105449450839
97.7292001432522
98.5133027191079
99.5476045092849
99.3500432279072
97.5222096897638
96.8499444683837
97.572817840437
98.7915607031484
99.1645248511939
97.9391600152222
97.6235549372011
98.2959616316158
98.0658432103028
97.5477433106938
97.7897633762133
98.2459332242097
98.667838047079
98.3499367646942
98.6398155640681
100.380455554561
100.280151399318
98.5025648784933
97.9145418189477
96.5426172142733
96.7279854864562
97.3721308934908
97.4927074471602
97.7726511688864
98.059042355484
98.4010296949412
99.0260074227453
99.0165058128859
98.1521451179446
98.496051291979
98.9890931279874
98.4102838674624
98.6595102310081
99.3519796348073
97.827076760838
97.3297004636326
98.4270567678484
97.7063550323833
97.3543435523554
98.5391569861658
98.7384549995685
97.6311992813692
97.6150654688805
98.1104923456537
98.6828271620817
98.8773075649251
98.2611013793591
98.0317694444797
98.2976303801927
98.7347591033285
99.7848913159147
99.9472731928014
98.2958124357052
97.0244769683453
97.2636820839248
98.2260302419332
99.6709600993153
99.0157466673808
97.1142479737064
97.208926000757
97.7424211102213
98.053266847548
98.2628416103312
98.359362973558
98.5389405908579
99.2427008156092
100.041926033098
98.8400325975108
97.5641644794439
97.8849503012298
98.5876186891036
99.453409543647
99.9492320286728
98.5529081963683
96.9698110909767
97.3350330409538
98.0596506962317
98.8018478665692
98.5361171820958
97.6711351797033
97.8278294644507
98.2037819183366
98.3606641782526
98.4606420642253
98.5337375916031
98.6177179328539
98.6297705635802
98.6376906570745
98.709230008016
98.8639415004528
98.9414795472303
98.6015737301313
98.3381087759007
98.4609153562852
98.6850659317447
99.3040615384553
99.2989371789152
98.2911452307118
98.0777084755425
98.2286049991177
98.391913814995
98.5317927418067
98.5560333010117
98.5564142723124
98.7469197495349
99.2933012097209
99.6778906749122
98.6069739948974
97.9113172852503
98.4074360982095
99.0687707649638
98.8159316223188
98.0257141092396
98.094407357996
98.274755136277
98.4729845687898
99.0753423608464
99.4093132062737
98.4556223453074
98.1213248980602
98.6625338904771
98.3687448600869
97.9477443099208
98.4104573312542
99.4204324637479
100.189111336896
98.6814393940256
98.3534307141676
99.4251105242829
97.741043101219
96.6386696422543
97.2972363229726
98.8147243989217
100.770087267731
98.9504184549999
96.0340619622863
96.6434466212806
97.6051949209768
97.55589580063
97.9635908921406
98.5479350307711
98.9777290357086
99.3944688315822
99.1961183703815
98.1965894832267
97.1230241277706
98.257050877727
98.3825372879482
96.9773179252367
97.204539525474
97.7408627621948
98.2432481178892
98.8100363404095
98.8400857873833
98.349849921954
98.1312468929866
98.3401347447014
98.8419037599963
98.2619827634786
97.8070012411409
98.3321713706454
98.6033321327507
98.2083202915185
98.1728996059165
98.4504697640201
98.7010130539339
98.6675990628453
99.3806900873051
100.123862244551
98.6953684253086
98.0280106457193
98.6806181018691
97.8517726173451
97.4363354976778
97.8939918033744
98.2040368380585
98.3495432035215
98.4872626449186
99.0211090374169
99.6052625513277
98.7939804967211
97.9916285607087
98.2630690540606
98.4677616378037
98.6372199150745
98.71816844112
98.6789416720246
98.7247696112899
98.7903808944216
98.9661236361252
99.5582073846399
99.4059404839399
98.6738460587894
99.5269278284896
99.2721516879429
97.2467017393497
97.1894525575217
97.8861090303679
98.2655937065575
98.3250753962203
98.4084725313185
98.5546465388933
98.9065329609929
99.1406065930303
98.6436990374523
98.498941077019
99.4657824334903
100.440411877567
99.7253559286762
97.3898838209449
96.5134884206531
97.5694632321527
99.2924279856268
99.3858931652947
98.3462802087729
98.0137792895919
97.0854719391302
97.3326612101392
97.9711391582147
98.2561736515614
98.4158531452716
98.5173287171127
98.5698914465631
98.6297083090631
98.6705675366965
98.6161405144177
98.6719145719116
99.3706531741806
99.9914882354599
98.7422400360033
97.7331673077919
98.0527349401457
98.5423944511674
99.4921632462
99.721496154941
99.1823013584232
98.8069653012888
98.2848331821597
98.2401196464133
97.0008578745281
96.6073951886617
97.2672464992767
97.8815919069713
98.202201791372
98.2161629230636
98.2700412964302
98.3807013613825
98.5244046446293
98.5916956782271
98.4290451361752
98.4403112658584
98.7443055198379
98.9950419091162
98.4093891429854
98.0576387217866
98.5286429380512
99.491671702277
100.22826675524
99.1844619021235
97.3489739451719
96.9406695624794
97.378670820411
97.5487047759169
97.9276996163741
98.148820683021
98.4099482710664
98.7587874496466
99.2356395061965
98.8934021069965
98.2670400379824
97.8959383993075
97.3704969353466
97.9710818504328
98.3580332697034
98.2613161861436
98.436125844843
97.7557256510887
97.5263609177488
98.4675737884649
98.5556764378424
97.8604533191728
97.9566252518125
97.5308510485892
97.4642149267201
97.8728736755598
98.1204333425354
98.2659014559285
98.4437576142353
98.4218926115072
98.176385008273
98.220832580757
98.1408729543133
98.1474135646567
98.4772357878614
98.2320281106234
97.9382251957155
98.0829405048384
97.7164964484931
97.7293909774167
98.1104096043056
98.6175223586895
98.7198414063138
98.2558769150227
98.0764543978294
97.2733454099816
97.1682177065068
97.5527712356817
97.6302483810423
97.7130516218379
97.905548430586
98.0005619818065
97.8879241421101
97.8760587145612
97.9894918525196
97.9630160827524
98.0028188399478
98.1015174212695
97.9638734065111
97.8215939488935
97.8746015327897
98.0269339559616
98.1040943075374
98.5140201820421
98.7179384787786
98.1855060048741
97.7280238637817
96.9757689011476
96.9633466029974
97.2875916803219
97.3339902044386
97.4775734927982
97.6840773489508
97.6517098479446
97.5339482671345
97.6447258369729
97.7175709060258
97.7066567446974
97.7325620471921
97.8145809192367
97.891039550482
97.8703881038241
97.5655957691872
97.4009523208585
97.5095692701158
97.6910511082651
97.8523235534707
97.6789344753032
97.5340633297766
97.5018481187494
97.2517835542931
97.2401957570349
97.2934455838378
97.310203999287
97.3429594597209
97.4186681199436
97.4752736328703
97.6332399523982
97.7471164790511
97.5063145986039
97.379373996003
97.4589688919428
97.4914884992377
97.532661801012
97.4943393534307
97.4794206597402
97.5548910559531
97.5033069047027
97.4417741086657
97.274499878156
97.249678488883
97.3190666212803
97.3406324909421
97.1227477049596
96.9419345768724
97.0462833516279
97.1421670762347
97.1522149009252
97.1159909569247
97.1245422548013
97.1787958458954
97.1800070213233
97.1744079895932
97.2155472584851
97.1779208993071
97.1292821091003
97.2055274122443
97.2385163463408
96.9887236899638
96.8976922464698
96.9583477655394
97.0160549197618
97.0459111529967
97.0580160639142
97.0307144091272
96.8630032753125
96.752407213203
96.7305703407635
96.7625159181592
96.7964575214664
96.8391099570928
96.791287339197
96.717710079646
96.7374765718909
96.7098171762979
96.6649262573383
96.6700623797627
96.6696666297909
96.6605403186605
96.7202234511589
96.6901304383046
96.5385263604982
96.533835001375
96.5675035446146
96.5715566078903
96.6357777429263
96.6407049143836
96.4929083342968
96.4187402036863
96.3458196446882
96.368302368397
96.4066108461094
96.3806706774419
96.3628342105513
96.3254904560397
96.2860076025216
96.2783377208616
96.2225929556955
96.2046982692034
96.2473687479457
96.2560753843139
96.2058290847079
96.1616461051967
96.1263305374218
96.0226015800417
95.9397227046512
95.9993648931673
96.0920174690686
96.0239217518292
95.9476386897759
95.9361689897412
95.8827674655683
95.8358540290807
95.849551748212
95.837541363128
95.8197060292584
95.7887255078883
95.7310546970551
95.7018912266801
95.6978455769712
95.6559374483529
95.6306670477896
95.6424720739943
95.7322561287754
95.6975409005064
95.4090619935703
95.3154845836979
95.3154048806744
95.3178149491933
95.3058490794379
95.2458269942572
95.2595688132645
95.2658730454715
95.280423670968
95.2824655121448
95.2376961628697
95.1724521636432
95.1704833128282
95.1999190476833
95.1795777175777
95.0830524309024
95.0002395415972
94.9798514019298
94.9747531848862
94.9948959368987
94.967103738633
94.8867268506449
94.8182659484371
94.8133908271675
94.8246240032599
94.7748835713593
94.7085597610165
94.6721503666993
94.6211718420929
94.4838410246578
94.4241464489124
94.4149294593171
94.4065351377038
94.4018893988783
94.3652179133185
94.326588197432
94.3217366275245
94.2684750157411
94.2160476944794
94.1482237630399
94.0992494073933
94.0971953637841
94.069299123969
94.008901323402
93.9665902348418
93.9768073597482
93.9733921988015
93.9126365213705
93.8878092899354
93.8238329283946
93.8137275139387
93.8540765836494
93.8645353096209
93.781402223567
93.6540585981379
93.6274953031487
93.6764409863393
93.7305688383824
93.6371561320694
93.5650184960885
93.5914216807757
93.580384072406
93.531464324712
93.5221846662853
93.5156197660374
93.5160708958355
93.5021238345066
93.433979967113
93.4223574335022
93.3865509883606
93.3297158654503
93.3034803459408
93.3174615277014
93.31837021957
93.2856985079051
93.2450546319226
93.1865219313573
93.1667088046936
93.167050058071
93.1528412958022
93.1150662195846
93.0277811021726
92.9910192781813
92.9888223201818
92.9782101444254
92.9114342194402
92.810672823615
92.7518386548306
92.7291928126864
92.6978096537491
92.6593036831292
92.5968146270387
92.5345482235973
92.502026859473
92.4745173917447
92.4588077201277
92.4401881105109
92.376388767973
92.2968172236284
92.2370484851906
92.1660688958135
92.1395067245341
92.1170945977811
92.0717250581675
91.9925303426058
91.8805309938616
91.8146165114204
91.7340590488197
91.6856902834023
91.6377011510032
91.5647084720433
91.5462920894411
91.5074019596704
91.4173167540451
91.3402121625195
91.3228699796358
91.2929379558029
91.2231822362623
91.1553318206784
91.1206571143824
91.093094764076
91.010845448066
90.9842728287139
91.0154290628649
91.0385987287563
91.066442979508
91.0674338170821
91.0482224158816
91.0448782434958
91.1060672563984
91.1360997781215
91.0729230753014
91.0528088631644
91.0935891582331
91.1551205662983
91.1829383016924
91.1714502089644
91.1838027091106
91.1966831194059
91.206746448591
91.2569137819119
91.284740382901
91.2916805020953
91.2729049882797
91.2677559902583
91.2970404733036
91.2891536060387
91.2931924629085
91.3015259764357
91.2378492075446
91.2005241618375
91.1942501928857
91.1959533001356
91.1714616693576
91.159955421057
91.1762594697914
91.1373154952579
91.0921572931437
91.069923657491
91.0979267156861
91.1324963689178
91.0781574133595
91.0586121499272
91.0520084791515
91.010038068117
90.9738315170979
90.9934271932751
90.9981257256154
90.9486489012333
90.9149499846727
90.9075774649894
90.9320268598165
90.982989743316
91.003605839908
90.9988978417347
90.9849602048624
90.9423741180633
90.9251790847041
90.9313050169533
90.8887140118593
90.9210617408708
90.9419058439777
90.9158888256599
90.8881429545833
90.9016388233284
90.8981022756221
90.8427647845122
90.8152295105921
90.8630928309908
90.8881577498029
90.8733078161768
90.8717242818415
90.8806673959785
90.8943170507542
90.8946189965472
90.8724831283594
90.8591967688944
90.8893001542191
90.9188976662142
90.9393926109212
90.9622055667004
91.0010438694206
91.0525373700937
91.0591389894299
91.0729595212746
91.1207987120911
91.1523515833535
91.1483639592557
91.1799461446348
91.2192758972673
91.2220425139935
91.2524975738375
91.3453324533523
91.4590651240112
91.4971991632726
91.4738136381121
91.4874067558304
91.482047700182
91.4939260543941
91.5457366645688
91.6326553793162
91.6539378111335
91.6303729373388
91.6593001511588
91.7219408218114
91.7665864619572
91.7668433588718
91.78052752007
91.8304522735675
91.8873549929156
91.8891323720791
91.8757908818797
91.9174170398887
91.9275491541658
91.9355579666469
91.9843085876676
92.0094102529913
92.0064765031476
92.0059007066731
92.0336564779584
92.0837907976213
92.1446589248322
92.1910867858422
92.191186143867
92.1899394871461
92.2258912611429
92.2759420441583
92.2759525701065
92.2764424821529
92.3249902278111
92.3362387485514
92.3224612936561
92.3658546128937
92.4174364163444
92.4279008114608
92.4179674590328
92.4623927011149
92.527548399443
92.5756895496538
92.5702711704928
92.5725560434874
92.6044590793936
92.6255983166162
92.6299800000765
92.6395246919649
92.6507758618389
92.7020299045967
92.7589765048284
92.7735239864045
92.8122690874029
92.8002647096589
92.8013469218017
92.8606408162211
92.8903674953718
92.9011603963251
92.9329000677941
92.9817908012278
92.9978235878927
92.9883225841003
92.9677848610679
92.9659096257551
93.0377705184511
93.1085060752036
93.1116721570692
93.0928621671298
93.0965719122743
93.1421857008335
93.2273727579818
93.2830272269204
93.2468206003817
93.2270778047523
93.2840033322149
93.3143691627142
93.2718089017313
93.290592828669
93.3338189528126
93.3606138987398
93.4012224751165
93.4303743445962
93.4175304610162
93.4255424979546
93.4408925613047
93.4570723176004
93.4895087847631
93.5076547572821
93.5394224273324
93.5645628276305
93.5411262562648
93.5650975142869
93.6262517276047
93.6448575693035
93.6482080113736
93.6503459760133
93.6644795176005
93.7119657116015
93.7488339484592
93.7793704398617
93.7743388319622
93.768834893614
93.7889102917885
93.8298258260779
93.8708851094278
93.8782608035136
93.8741455623353
93.8622066867647
93.8496120497369
93.8744531378412
93.905359909875
93.9247978634819
93.9710350614122
93.9914524268674
93.9646227659465
94.0214851903867
94.0721559564131
94.0630564969465
94.0537492977492
94.0598869287338
94.0403099481593
94.0693622833272
94.120022873032
94.1719128642418
94.2041091650909
94.1974595942619
94.2141422512892
94.2261202479568
94.2196893091748
94.2027055857418
94.233715670683
94.2709290518374
94.2850209743012
94.3285702397992
94.3545587392484
94.3400057740058
94.3379497174973
94.4159681897954
94.4513994352874
94.4380653227484
94.4184055296006
94.4082363389834
94.4403091482119
94.4766895449268
94.4888027610274
94.520487698496
94.5611582968536
94.55791732607
94.5360908945896
94.5488186616566
94.5650394099936
94.618279116989
94.664490927291
94.6657472149888
94.631316892938
94.6489033492818
94.6890083648887
94.6825208007007
94.6958776097083
94.7215539938455
94.7012100859502
94.7033264585434
94.7246993879275
94.7222214387679
94.7757385127852
94.8520199322213
94.8839975741535
94.8657272860054
94.8437157303181
94.831566830726
94.8469124939002
94.9153843734328
94.9605055565802
94.9794560012181
94.9844374095134
94.9760111460281
94.9967974578524
94.9857007940722
94.9633862163492
95.0132767593733
95.0470595867379
95.0233165467355
95.0078873627842
95.0371145989701
95.0670181351495
95.0685356335521
95.0726324472341
95.1239760349513
95.1739517342725
95.1943318296963
95.2114309421617
95.2091118025013
95.181315298736
95.1704254415931
95.155558203842
95.1923415096176
95.2179886437145
95.226132291763
95.2410325205494
95.2164049260246
95.2466001054468
95.3243678527072
95.3244344963427
95.2705150697746
95.2978462890022
95.3223791928973
95.3201159745267
95.3471524432663
95.3893031634106
95.4059613662852
95.3690810336123
95.3530718806517
95.3893808770727
95.4246244045294
95.4518594048928
95.4314207039854
95.452804746041
95.4992064204875
95.4760126397272
95.4494247437347
95.4692685127462
95.5002472172467
95.5307018660568
95.5508018867633
95.5927839919624
95.6178124874831
95.5763210864472
95.5689383194935
95.607650433587
95.5988197663042
95.5784800729306
95.5790299603841
95.5961867847145
95.6234972182448
95.6402922222963
95.653653274487
95.7104700856803
95.7182104970203
95.6902781975824
95.6871365951264
95.6740005272584
95.6891635207732
95.7283680677168
95.7605102315198
95.7782466047931
95.7721144101256
95.7594277087742
95.7873804657299
95.8147627711568
95.7990528289205
95.7717349161673
95.8027595935508
95.7929575074456
95.7866405953532
95.8048304291765
95.8325879934567
95.8876201096393
95.9109779953803
95.8768312323044
95.8677472615307
95.8874602832926
95.9098286019658
95.9085702669984
95.9174879037242
95.9088860871759
95.9382255664195
95.9815784208367
96.0085045728337
96.0022386010145
95.9887474423394
96.0008287300245
96.0050405389749
95.9924467090938
95.9893780989166
96.0046844620013
96.005882334537
95.9922500980785
96.0112767968621
96.0246091750081
96.0269961413176
96.0444034189306
96.0710854272758
96.0885329859955
96.0733980737216
96.0377764076681
96.0808175324271
96.084836812255
96.0382476259257
96.023554465186
96.0488069562967
96.0527620498005
96.0316486433144
96.0032684927295
95.9709048447195
95.9515096715163
95.9412896319686
95.9331466238407
95.9137072506987
95.9031339491117
95.8828555803857
95.8576329896249
95.8427692539347
95.8336969975955
95.8896131161605
95.8935147349021
95.8640950071792
95.8763906604308
95.8890019706784
95.8671719007437
95.8561835295844
95.8516020445351
95.838826794044
95.8534500521483
95.8636601782203
95.856483847036
95.810218472552
95.7549408325967
95.7036136146317
95.6746243300003
95.6863214368867
95.6677778815796
95.6316005319217
95.5917997252348
95.5755847870872
95.5562320823413
95.5435258708106
95.5326965407202
95.5424416000592
95.5396233513525
95.5139260215901
95.4945595925448
95.4799652895456
95.4845844195122
95.4854615390823
95.5016037220161
95.5023755261522
95.4789226460388
95.4826353956686
95.4902601220853
95.4584131156518
95.436943372559
95.4487596428101
95.4450838150444
95.4311911881634
95.3893181260282
95.3536548403309
95.3519569970002
95.3432293161675
95.2999923445765
95.2663135187111
95.2598021536746
95.2370346312409
95.1938162725923
95.12873380432
95.0492946840814
95.0020606091433
94.9685298329054
94.920852666329
94.8580220617425
94.8349141556003
94.7869263725869
94.6964763240838
94.6082079735782
94.5785124449782
94.5439524003526
94.5058509072745
94.4760149971729
94.4184259008589
94.3774998554637
94.3524666990139
94.328023977276
94.3052266565217
94.2643930856985
94.2345768784592
94.2464360719827
94.2568679620242
94.2408908269835
94.2314882411937
94.2214174453462
94.2370377217166
94.2359476476213
94.2230129388409
94.217809823997
94.2423333377403
94.2403650474585
94.2312638200257
94.2725126108865
94.2928634291334
94.2973397337664
94.3411087289232
94.3657401549515
94.3584686040246
94.3632718159696
94.3781252942285
94.373157362173
94.3506223271
94.3283131144305
94.3636404824651
94.4078110467239
94.4440879187409
94.4496171982736
94.4430106030659
94.4137843414104
94.393166628955
94.3955617004425
94.3939482872618
94.4134037975609
94.4273786114241
94.4261127976741
94.4277493182077
94.4266557278965
94.4439889311824
94.4503601770282
94.4773501404145
94.4846119397118
94.4808170615501
94.4967680206361
94.5302367166895
94.5287721295047
94.5362749975614
94.5376872185204
94.5397176754184
94.553662164774
94.5596611013724
94.5859432552316
94.6231561035435
94.6466792517774
94.6399604271623
94.6475273473874
94.6953063627705
94.7241131445053
94.7656611758412
94.7914942325621
94.7954359779364
94.8054167392014
94.861070378866
94.9090506102016
94.902713847787
94.9011270227924
94.9317692481654
94.9471173936626
94.9525004426283
94.9920165121977
95.0322814905264
95.0464780592264
95.0392942588888
95.0407643811183
95.0668798163773
95.0976858235875
95.1156461064759
95.1382842371535
95.1849477622054
95.1929257854634
95.1943259051856
95.2038951261551
95.2250775922662
95.2590587458605
95.2786527205859
95.2838114979104
95.2973920942715
95.2962659692699
95.3058517344646
95.3279110981326
95.3391592522918
95.3429454055034
95.3412376542662
95.3618793678443
95.396755214062
95.3940090137888
95.4083006172489
95.4108783330738
95.4197850362881
95.4347017385159
95.4688627786645
95.4777637671791
95.4686776074044
95.4611697992621
95.484936848129
95.5067478008607
95.5357912968524
95.5619647272379
95.5536871383597
95.5434866169936
95.5503312573617
95.5635907781304
95.5690597552592
95.583151758994
95.6097901470989
95.6106260854459
95.6441289358608
95.6561175759685
95.6502771730316
95.643428855167
95.6293385989122
95.6326555189129
95.6486052412116
95.6494304279377
95.644909825621
95.6461687362615
95.660158851643
95.6633980957349
95.6552160995878
95.661290540928
95.6847500096499
95.7167255243428
95.702420316942
95.6889879729702
95.7186450948615
95.7142581204761
95.7376774723981
95.7322825493081
95.6891095126508
95.6837495495389
95.7272903646679
95.7460140271859
95.740199940971
95.7431033044504
95.7423373253926
95.7481845490591
95.7603555839249
95.7695146621454
95.7765547260545
95.7779924013486
95.7878351527285
95.7847266465681
95.7667142545401
95.7508310287451
95.7775156790605
95.7841098881178
95.761455531249
95.7612993479671
95.7916810929715
95.8043525253368
95.7996193352404
95.801093670163
95.7898384107644
95.7876264203496
95.7962239801411
95.79632729835
95.7993173662281
95.8135358946901
95.8350406679079
95.8473645103865
95.8454379327919
95.8220481770034
95.8267338258551
95.8293580704723
95.8145804928787
95.7868574175656
95.7816054826485
95.7937807291465
95.8037264246151
95.8063262773144
95.7939418510226
95.8029379112775
95.8004081260842
95.800183218399
95.8332414995046
95.8525636411663
95.8401991683134
95.7961872170355
95.8134192170977
95.8312817173676
95.8286537398165
95.831848288733
95.8418633011192
95.8432277143641
95.8374276626673
95.8299552067698
95.8290962184998
95.8179440166633
95.8071516222915
95.8157765956822
95.8365008847704
95.8471889525498
95.8303654444029
95.8103941151999
95.8148361342487
95.8323396849949
95.850617732733
95.8410905815747
95.8449615011698
95.8506222618594
95.8847863270151
95.8958440265721
95.8875188529852
95.8795026518595
95.9002408853097
95.9289257652951
95.9199538544297
95.8988944585815
95.8957196421459
95.8959486812144
95.9050223130603
95.9027296606878
95.9054013644019
95.9401544330117
95.9636675803604
95.9513537557099
95.9444996782726
95.9508560840422
95.9535420644759
95.9486815226742
95.9632324139536
95.9523417330679
95.9506311267035
95.964500585074
95.9654458920005
95.9675155439481
95.9836249427632
95.9863388398852
95.9726207769225
95.9697309185
95.9727187381655
95.9819009798759
95.9946721013467
95.9871423083521
95.9748147392589
95.9848016462095
96.0089611998034
95.999222382517
95.9911452119787
95.9874833239497
95.9944875717444
96.0118750928078
96.024950362986
96.0153356835814
96.0106609388947
96.0177213371651
96.0193542181583
96.0202079923376
96.0349938629549
96.0615202261392
96.0858528753246
96.0816015738759
96.0790995274648
96.0812809589076
96.0966979799771
96.0983031693564
96.103157220066
96.1011054608386
96.1100417225638
96.1197351563407
96.1188990074305
96.1023976337417
96.1120716597816
96.1427498726134
96.155127344203
96.1406205777118
96.126566001648
96.1345148509569
96.1598768477852
96.1786837606616
96.1720188012093
96.1563043587813
96.1526440938574
96.1687592194816
96.2191458489953
96.206471782718
96.201816651582
96.2227591318016
96.2372656960582
96.2277047745224
96.2195268735421
96.220479979298
96.2386551316721
96.238858867914
96.2182632511134
96.2090615492456
96.2008695274708
96.1833016904098
96.2039209476854
96.2538131925229
96.2734620923462
96.2439813139641
96.2515078444294
96.2627495876979
96.2660185189287
96.2584592563781
96.2824506556826
96.2876767357273
96.2669460245811
96.2596490141717
96.292588131576
96.3043334605228
96.2947668961159
96.2974003389911
96.3092751515562
96.3270788237576
96.3212709665403
96.2955100687648
96.3214329323582
96.3451430250631
96.3477026785058
96.3436441996261
96.3631394509092
96.3601291590097
96.3902144055001
96.4162406838388
96.4162813851177
96.3899079734809
96.3702990288462
96.3593170509098
96.3863762346653
96.3832797408723
96.3531175741016
96.3589974569382
96.4109002070949
96.4305715710051
96.443077688094
96.431532722907
96.421661648257
96.4173733901877
96.419836474858
96.4082715612451
96.409361135604
96.4159428369668
96.4515353204176
96.4434764791672
96.4388255906405
96.4583136684428
96.4725542440175
96.4561513611816
96.4535372147004
96.4242953873241
96.4183575843827
96.4765617992879
96.5203872046062
96.4863019732642
96.470226309377
96.4535755268054
96.4420745546897
96.4526817664097
96.4825931551669
96.474175732925
96.4676653943872
96.4410719077999
96.4159098533765
96.466574793566
96.5397827282147
96.5198400429286
96.5048068123862
96.5152998520533
96.513892882412
96.4806112224848
96.4604879247056
96.4654531361224
96.4826417312501
96.481075366197
96.4872871427439
96.4913904451971
96.4829118813648
96.4224867095656
96.4562701108622
96.5035804383701
96.5042538433114
96.4889482734278
96.4752467076613
96.4557806428516
96.4985707978693
96.5386750886709
96.5293698530272
96.4951987720964
96.4714707224297
96.4592256370988
96.4812258047277
96.4994026071012
96.5415987249553
96.5340774048602
96.5431452551602
96.5402510340711
96.5262341801004
96.4943161309556
96.5060494788716
96.5267218788159
96.5234116286412
96.5259607685716
96.5313530397728
96.4964117262593
96.4864159946655
96.4856279954485
96.4713658625679
96.4547122497065
96.4904213711937
96.5145050473652
96.5414740000781
96.4872854247699
96.4660661047454
96.4832218945143
96.5083031478287
96.5558121332457
96.5812438628554
96.5675913700304
96.5369682947369
96.5175957477016
96.5473019586306
96.5458638602676
96.525555019642
96.5318630732629
96.5319992145503
96.4983862024143
96.5008002376467
96.5348783082825
96.5582840667822
96.5110069925841
96.5075735723923
96.5248703805213
96.5288925086879
96.5226421927583
96.5439042741748
96.5555369727986
96.5691065754492
96.5773266476467
96.5674001159688
96.5742035940214
96.6094280856579
96.5932960372738
96.5636278699413
96.5705331570273
96.5871327009872
96.5592841505713
96.5740510658522
96.5668318655929
96.566697270652
96.5746538525385
96.5993740248539
96.6169780488111
96.6097037260449
96.5936740716176
96.6075634986112
96.5942295394476
96.5932596598327
96.5676886271934
96.5570487724239
96.5768106242022
96.5993373840101
96.5805150048207
96.6012242910968
96.6278691283711
96.6204170738597
96.5647248793687
96.5477770723338
96.5732984511545
96.6028751488992
96.6009518647885
96.5901166211476
96.5875111107153
96.6246667524059
96.61300334833
96.6119437800424
96.6325751597216
96.662296658428
96.6289239356746
96.5859022340534
96.584486107668
96.6288240698563
96.6769053956667
96.7046038937555
96.658071955889
96.6655190301439
96.6424568908009
96.6220109195334
96.6146244262603
96.6170658944313
96.6389951541131
96.6764360696632
96.6487282291157
96.6348830278247
96.6537442533672
96.6796489219054
96.7042941504356
96.7104468984984
96.6655276957211
96.6655480417349
96.6777583674895
96.698438431528
96.6581033164046
96.6562788754893
96.699155654103
96.7187201016542
96.6846148871883
96.6791735100208
96.6775883583771
96.7117501889105
96.6802138160358
96.6490037967976
96.6414404766469
96.6639814355114
96.6750976113749
96.6896884432687
96.6884800992707
96.6949141969678
96.6624784140167
96.648442602767
96.6470724001337
96.6763836348197
96.6751594873178
96.7215597053095
96.6836705990189
96.6725416597512
96.6889153422048
96.6840395141318
96.6608180889205
96.6673969513043
96.6418384526219
96.6370990552009
96.6387995986469
96.6480586882767
96.6202316849083
96.6298685844551
96.6495053293355
96.6697901737125
96.6484163666157
96.6725998429845
96.6677094846229
96.6464073465295
96.6182919661402
96.6388385246275
96.6643405672368
96.6870497058984
96.662015027343
96.6674545013739
96.6717114176232
96.6925630933057
96.6476073568731
96.6476534492921
96.6719089686558
96.6940144894704
96.6779430079693
96.6795743419222
96.6898930339453
96.7353245802862
96.7231262672461
96.7756459394378
96.8176929165846
96.8478956538521
96.8002498516651
96.8109728174807
96.7806005792736
96.7400899906248
96.6517442547126
96.6853028395072
96.8602365863783
97.0257639821705
96.848074385647
96.6447481559783
96.7262413646158
96.9494337469113
96.7708759680321
96.6939065667495
96.8956152994305
96.8444937203974
96.6366272961269
96.7630036203395
96.6509839831407
96.6032031179395
96.5852504260299
96.6256194559666
96.5503818430917
96.3980574805217
96.3344026807007
96.4030158270331
96.4910725364484
96.8464584063628
97.0203257747479
97.0006336475281
96.8972721924523
96.9072854104598
96.7991360119346
96.8082267155905
96.8000093425654
96.8524483408205
96.7746181074
96.7501699042857
96.7680723160252
96.7958894648357
96.6288714827796
96.5919702580265
96.6197102173923
96.7205938872178
96.8181897144654
96.8244644203524
96.675500851158
96.5355702088061
96.5473994238902
96.6087135813421
96.7384690436897
96.6125545492834
96.6711826220088
96.6503271823634
96.8702984604439
96.6023466396011
96.6408667095368
96.5167243489185
96.8367554315617
96.4596287681035
96.6530798928593
96.5823503074135
96.7920334028098
96.4978387593111
96.7290045913602
96.6111840835029
96.6292202306097
96.6484303800644
96.6578005238861
96.6351689264929
96.6219241944015
96.6916191384774
96.6598586786904
96.7054920710153
96.6760131566318
96.7164207910634
96.7793583710766
96.7116277860917
96.7637962210615
96.6902329098086
96.7797045249548
96.7828022277047
96.8477637850237
96.850444370998
96.835293145562
96.8146392607746
96.8269860329254
96.8064534183365
96.8426805064382
96.8553862354073
96.901512898225
96.8895459690198
96.9105490421296
96.9186540403706
96.9638189902616
96.9558978582667
96.9923532289837
96.9890432501794
96.9657889618305
96.9401054436133
97.0267921858163
97.0867520181039
97.0973519279707
97.0161536994361
97.0292422526957
97.0206791594494
97.0759139994995
97.120377602472
97.1328736589939
97.1020531967941
97.1283401682348
97.0655703002605
97.0992005914234
97.1413269408356
97.1687642819668
97.1530009161718
97.2048638924608
97.1766426695274
97.133873106112
97.1030622633176
97.1421748516503
97.1689603272891
97.2113008893891
97.1767481688009
97.1887348807434
97.1921185621624
97.2145339136216
97.2585662680155
97.2738149867783
97.2185102589794
97.2776062842872
97.335920344277
97.2699434247026
97.1866027307609
97.2775308209175
97.2665336350926
97.3022002588568
97.3342836302191
97.4103626532948
97.3918668942049
97.3223610920512
97.265143047442
97.2890678561516
97.3367608235871
97.3893254294976
97.3719196671958
97.4003448600812
97.355578637578
97.3846677375828
97.4229252228955
97.3939842519234
97.3726960445868
97.4697682030614
97.5330308318512
97.5386325971413
97.4342460927552
97.4150142162913
97.4384475566235
97.4601567600927
97.3649047577271
97.4025244076067
97.4876785074838
97.4929831654444
97.446316944952
97.3974687612859
97.4184342035438
97.4825914161489
97.39940713012
97.4286594724381
97.5182406639731
97.48572985629
97.4739846447382
97.5142728885717
97.4356908396838
97.340691259621
97.2833200711384
97.4544102983642
97.5321845906799
97.4877145172188
97.4361813498718
97.4779767195417
97.5459563385083
97.6325113919301
97.638340741846
97.6671812415936
97.6296219409973
97.5628737540557
97.5346553713303
97.5898528848681
97.6077657292243
97.6104275442252
97.6013664128641
97.6737545948611
97.7253031877221
97.7310254223469
97.7231632382563
97.7095257272155
97.7230727958037
97.7673640820289
97.7648555358376
97.8301468504175
97.8547159096149
97.8625021699397
97.8596755514153
97.840545587841
97.8804936640941
97.9110751262804
97.7954750115462
97.6824348706921
97.6428580751081
97.8108361021769
97.902426316627
97.8964119848523
97.9126051607331
97.9794646628835
97.9962756097393
97.9792583814689
97.9188546417018
98.0047270142739
98.1646569844009
98.2916536596776
98.1902740037711
98.0823809037376
98.1591972132195
98.1928528323761
98.1511945582638
98.2188117319158
98.2915410955112
98.293239691356
98.1727574082784
98.174570968075
97.9878399967792
97.821595936731
97.8022903278226
97.8674120098588
97.8525052682055
97.7949689600316
97.6902210544987
97.6533588156195
97.6590724785255
97.5830638349777
97.5571239732007
97.631585245714
97.5800207457915
97.4473875442756
97.3858670115288
97.4432019849847
97.3776762942624
97.3243274492892
97.3633068841079
97.359912503646
97.2447291762787
97.232827030649
97.2954688280807
97.2895512916305
97.1902892668722
97.1657858370914
97.1022108834426
97.0046435149488
96.9978610635463
97.020952868076
97.0309990444418
96.9990377146349
96.9638510044193
96.9671864159289
96.9001134940484
96.897884779863
96.922170549993
96.9223746869118
96.9363028322516
96.9122468327017
96.8795556478074
96.9121562081126
96.894089999137
96.8964438866553
96.92043725346
96.9672389326534
97.0066881059858
96.9584180232311
96.9436804747237
96.9411471380087
96.932666979551
96.9502892156742
96.9182246483608
96.9221634021696
96.9404293601864
96.9481145621336
96.9771463727317
96.9843470097979
96.9721678626386
96.9574559512989
96.9157040564001
96.9145400243513
96.8926426590905
96.8492019201343
96.8439852318857
96.8590593844479
96.9091695652167
96.97001333504
96.9304113221566
96.8402357902205
96.8064394105461
96.8611531460369
96.8981591127824
96.9345131803216
96.9702837264398
96.939187413771
96.908799363882
96.9394402448262
96.9572719024505
96.9873478673524
97.046939502925
97.0106916233434
96.932489548668
96.9948289156021
97.0885017062886
97.122347352491
97.1246992673466
97.1266184550596
97.1344600713027
97.1681465185619
97.2258637920623
97.2412209164418
97.2113485911113
97.1344736296068
97.0807357215341
97.1566145314006
97.1482585560238
97.1408626867627
97.1786801006557
97.1377263913685
97.1084409416492
97.0933320019713
97.099494506503
97.1524830113943
97.1787424150052
97.1713298412433
97.0895331061256
97.0778228061163
97.115430133892
97.1594211072797
97.2437581000393
97.2713638849697
97.2462942999742
97.271458528151
97.3232070627326
97.3748492461539
97.3814724728545
97.5060549642949
97.6329844343122
97.6173895448556
97.5360772567211
97.5093279159645
97.5413600096394
97.4732565700853
97.5283886502337
97.5886339126354
97.4512873697181
97.4805571798419
97.6245076335591
97.5718057705095
97.4259560554011
97.580207407224
97.7311104626215
97.7842581650394
97.7209645185175
97.6038401212826
97.5946509685308
97.5883637253729
97.5286150169086
97.5740978023497
97.6104281080287
97.488185746684
97.6436410828399
97.8466778234668
97.7390364165069
97.6697073980496
97.5769012147859
97.566358332111
97.5513207132717
97.5653910003102
97.557022940055
97.5235851938477
97.3834055754917
97.2758530168344
97.3780449674688
97.3801187597751
97.4005358966444
97.502889240558
97.5488747918332
97.5578289434775
97.6192613206452
97.6694265005587
97.5464715506397
97.3859841891913
97.3206432006973
97.3236367756701
97.286003682246
97.4232515788968
97.4664700787807
97.3976035611783
97.2960754200364
97.356934914591
97.4077078376504
97.3449693403206
97.3731712931572
97.3596568195265
97.4174758858324
97.5059849432121
97.4628483859555
97.1676432114983
97.1320565875346
97.3109581837779
97.3255764367397
97.3260526056989
97.3929106060283
97.4249325527723
97.35788422167
97.4346218097335
97.6145859262025
97.6738889383441
97.6476145466672
97.6472450657159
97.6654894532016
97.6712693577952
97.6746588047533
97.6392101717821
97.5591420327198
97.5521715256243
97.5944523495661
97.4979824882302
97.5308252825184
97.558737832813
97.5091625997032
97.4723036300182
97.4449797583688
97.4121227849344
97.140555884016
97.0849584970953
97.1658557099252
97.181914580077
97.0933493393954
97.0991072949586
97.1826673886486
97.1733733128291
97.1171907705952
97.1487053300878
97.1280591949499
97.0424343752188
97.0736552437973
97.1286536867299
97.0395861018382
97.0357505631809
97.0741214075774
97.0908200570951
97.0910007418642
97.150148327602
97.1324459255163
97.0826239813918
97.0089897293423
97.0054172329761
97.1358613598223
97.3156290002031
96.8724648220937
96.5986872100041
96.8895839757583
96.9539639053165
96.9285471342301
96.9184667512277
97.0328192999781
97.062942850727
97.0055445834497
96.9733184728573
96.9799735203726
96.9854313137923
96.9880768483755
97.0070763630428
96.9791498274177
96.9646078611071
96.9705631171849
96.9627175738502
97.0119034605993
97.1285532809958
97.1656412517551
96.8450974351463
96.6611907658276
96.8214686883825
96.9485856862423
97.1257975744346
96.9365340478815
96.4633135099858
96.6924378759156
96.8319917494664
96.8604878118801
96.8835782280721
96.9371549355861
97.0192448653441
97.0281922613692
96.8457031249733
96.8232472006537
96.8400904234041
96.7980943093395
96.885482028943
96.9092937755264
96.8930563631244
96.8974263851284
96.919970427898
96.8969275529663
96.9087003278674
96.931285015337
96.9053707412224
96.9090588084063
96.9775604200256
96.9652655731652
96.7239276064307
96.711055826036
96.8068053587944
96.8726817029153
96.9990648644091
97.1028653189016
96.7355790532546
96.5267978369115
96.72005604396
96.8182925428707
96.9167576602481
96.8777643599411
96.8907922064237
96.9282842840234
96.9152331077918
96.8438338536187
96.8597806115154
96.8351922653021
96.8378303034496
96.832695749595
96.8246117384612
96.8088548133429
96.8563578545392
96.8985258834534
96.909420561414
96.9794650774761
97.1657897351938
97.1607490906055
96.5402224838226
96.2481683493984
96.3400989956683
96.400822875938
96.5490920308411
96.7417225717711
96.8584329472064
96.8925641455646
96.8994036195326
96.8475895266612
96.8528888040366
96.8683589954282
96.8647959662384
96.8606566728357
96.869957433372
96.8379095396044
96.8494723374121
96.8253067569889
96.8232633446121
96.8242015909494
96.8916587005075
96.9430729491801
96.8977790560464
96.5895270498203
96.8072377712448
97.2988639806285
97.1357693006669
95.8161951970715
95.9641073823361
96.4937341788396
96.572532998013
96.7133325716815
96.7937295598798
96.8591928217042
96.7554127416972
96.647643134396
96.7280236247135
96.8039698805685
96.788995666133
96.764419977825
97.0394519290683
97.1756997004598
96.4039445431471
95.9058233413316
96.3277430611298
96.7586306783797
96.9982598548048
96.4921488409174
96.1656078900933
96.5239227951883
96.6099149029919
96.7015299358465
96.7386689810255
96.7847303977772
96.8357583291163
96.754274967589
96.5854013362576
96.6492564862414
96.7486881254506
96.7528720887641
96.777948684704
96.8005632373621
96.7254002184834
96.4257518270551
96.4875392537778
96.7015475061521
96.6381837568761
96.6416457354105
96.690080337357
96.7669172546673
96.8742168017582
96.7671530543094
96.5041074963086
96.6036209052228
96.6154698548408
96.2340745807335
96.4009635576811
96.7264680873906
96.5744381386283
96.4655135796287
96.8292983813804
97.220885786604
96.3584433522615
95.7856586926666
95.9674249511663
96.1207435876625
96.4963315819654
96.5845786423633
96.7906743284951
96.8946691597382
96.7053500340458
96.3361669889021
96.6179644839034
96.7825733846406
96.8187210624798
96.3854096087273
96.3396868975493
96.5191699638719
96.6937685834595
96.7917059637
96.652498124691
96.5820099267006
97.2196302528569
97.1369084356046
95.7974490841926
95.4992919531827
95.9851309991085
96.7307255350205
96.4629933755618
95.8623907837562
96.3676268072803
96.5636172226736
96.6900303489666
96.9680367389953
97.2925347038626
96.527716964798
95.8308268076122
96.3786894010353
96.7462292829666
96.9341269488819
96.746971349698
96.0601493896716
96.3311480708985
96.6368136344608
96.8800220503906
97.3083901456945
97.0439540263429
95.8407055976843
96.2784090057793
96.2932048812249
95.9139903624993
95.9914588686828
96.141164725103
96.5364336574445
96.5921124888666
96.1580651048367
96.2461456365626
96.9634325778621
97.0229358283262
95.9505844966024
95.8990035353413
96.4534155279872
96.7630974049747
97.572438334955
97.5245859140355
95.5318095092493
94.7063330954921
95.6810365693414
96.5010631000225
96.2937745682108
95.933127848491
96.3811094992651
96.6321368651779
96.6733358011091
96.7530018123221
96.8135654350962
96.6604354523111
96.4827869414055
96.6118592410346
96.7649280775959
97.2149106490214
97.4048170074997
96.2905298891378
95.2174237381911
95.643158041532
96.0927952949956
95.5113090079193
95.7518527020641
96.198455380642
96.5583749963261
96.5953904128232
96.3921429177485
96.5436062083772
96.8878731601972
96.8350106238282
96.2673943686833
96.0636061316084
95.7293396469509
95.9419693723909
97.0679237436267
97.7945061547011
96.042340807277
93.7849963546384
95.2565424767803
96.4780127202656
97.0421301179151
95.3496223124896
94.4717394745777
95.6041688905468
96.1966489952734
96.4029783401274
96.5689693260855
96.3712099501217
96.225416273148
96.0646895434791
96.1087770296376
96.8096375258971
97.4779441031103
96.0396454131713
94.0737605795525
94.2553070626368
95.4399340666412
95.91590685744
95.5537886297744
95.6941537553717
96.1455659008756
96.5721097113809
96.9705474974442
95.6707056313367
94.8458034530163
95.8347715897635
96.2353488637091
96.0923826443396
96.0600192037467
96.0930469412376
94.7606084818513
95.0149156973545
95.629728064344
95.8942587381987
96.1197451907022
96.421840033153
96.1561602040885
95.2187293284727
95.3321171470341
95.699629322449
95.8211483150137
95.902876253648
95.896430458157
95.994994465826
96.3604611182456
96.8062084595772
96.330095794587
94.2583631114616
92.7103427918237
94.143825938258
95.4012022822129
95.9179218701291
95.8519554521158
95.3144393156377
94.8905990583218
94.0851180322959
94.6064145550939
95.3764038391369
95.5021847719226
95.6117587682788
95.5999567604743
95.6577366471081
95.7481413500249
95.8814436417318
95.7639703118172
95.9489329903234
94.2968686225173
93.817898148934
94.9490322486209
95.4415285890661
95.5781853626648
95.6753047928307
95.8568109628099
95.981379766252
95.4485395507395
95.0680992312332
95.5685929515657
96.0000782690219
95.9951081761836
94.9539045628546
94.887464728993
95.4356367111876
95.5630613650244
95.7705523890254
96.2039826761756
96.5303587305281
95.1310083290791
94.3891506583944
95.3015056691172
95.6607958795358
95.8163839336619
95.9302748021478
96.0353684597912
95.9941078451067
95.8322020092029
95.8313219011062
95.8992037318032
95.8217689485108
95.9780334517481
96.0768365498337
96.0741220908561
95.9761542118731
96.0278824839469
96.0345618888725
96.0919970617541
96.141367503823
96.1732047833484
96.1966975669219
96.1966699548492
96.1706924943797
96.0920039003618
96.0954206393686
96.2137906381178
96.2092235469596
96.231986491636
96.2162480047231
96.2287671572064
96.2686211708237
96.2997932093323
96.3180361923067
96.3249952263953
96.3255088561058
96.3432042044119
96.3373424647913
96.3518666061262
96.3581095944619
96.3673830071397
96.6102276625708
97.0190371030834
96.6164078117499
94.917056405174
95.2674768448263
96.0346213555441
96.1974415107185
96.524305645541
96.9309467864645
96.6560844422842
95.3078162601616
95.4662321800531
96.1570227046645
96.5253503883969
96.46306037836
95.9547973215442
95.9686006277757
96.4922296533366
97.0158648254058
97.5740370263761
96.4232597711334
95.1495587741469
93.6360430058128
93.841764465014
95.6720023919383
96.5684242902154
95.6159434115412
95.2662357248065
96.1816920108557
96.5777221159655
96.4564571572322
95.6696473223956
95.7918063560481
96.3838959993829
96.7681384864956
96.80387040654
95.9792747868404
95.907139444169
96.4748226686144
96.0201089029344
95.9083886321376
96.2611464066109
94.5625087868631
93.9085110142101
95.0630929547009
96.1037760523978
96.6039331727935
96.958287814311
96.207514220803
95.2416803654614
95.700614838452
96.0449003159689
96.477541986306
96.718794562706
96.4157837103446
96.2689929674586
96.3320697132441
95.9414557617157
95.7825367240663
96.6812083922039
96.7070029340543
96.1324720163268
94.8482727749673
94.8853123098552
96.2034495667015
96.7622976242393
95.5765683507613
95.2437947032019
95.8331041084655
96.1813652290372
96.5926338508046
96.3874077831936
96.1823786903546
96.5621580156397
96.3985579783297
96.4489517257364
96.6344926364136
95.422806627942
94.0320290921618
94.4346391674433
95.7187153466885
96.4914826395405
96.5144611994821
96.6318329221994
96.8923947111361
96.8533904300871
96.2685353782599
96.7166057564945
96.5875662217633
95.504432405856
96.0622815310046
96.5939266526617
96.8217173798338
97.1863551985013
96.9160057771324
95.9257982773036
95.6915105256521
96.1191380001019
95.967425398424
95.8287500629558
96.2527504855769
96.3678286991598
96.4716622684439
96.4517889105604
96.2990369547705
96.0607699328774
96.0934474014307
96.2444280209975
96.480825926935
96.4452915912295
95.7720925592013
95.7793284330909
96.5513379054395
95.9828485214769
95.0983152144526
94.6698900078569
95.3124376647144
95.8481682023475
95.9111012424595
96.0034172968093
96.2077534712304
96.3132877058505
95.5492173132506
94.9588216866386
95.4074529862881
95.5163474370771
95.6465233206322
95.7453559523455
95.7230516239451
95.3890420617769
95.0121131811244
93.4927944664394
93.2604819133842
94.150282704223
94.6962685871107
94.9218521593801
94.6975653186126
94.7611263766416
95.0313599535327
95.1620883263087
94.8548084271399
94.3865635775349
94.6493451668739
94.8515896217299
94.8861602536172
94.9213534692118
94.9249331586339
94.9312883254349
94.8861451774813
94.8647873232604
95.0784962314581
95.4096029315085
94.6722243169275
93.2344510455653
93.7603722817233
94.2097695706673
94.1051966073314
94.0073221000369
94.0608136018529
93.9494251779989
93.4216519577069
93.3688694578295
93.5638086473546
93.6179346500884
93.766396695551
93.7021378126117
93.3900223092077
93.2326482134102
93.7034813991151
94.1215187447995
94.4137098761884
93.3703691665254
92.9313700162153
93.650399332682
93.8163580950293
94.1735228936608
94.4901194017467
94.7098246345434
94.7928003894594
94.8341831789959
94.8216731739065
94.8912191508792
94.9167195089436
94.9943756722133
95.1247179076578
95.2319517876041
95.0470929970224
94.7013774098608
94.8650328641748
95.0729359577848
95.24993129237
95.4497334045427
95.2840935912157
94.7344491741843
94.78257892431
95.1068064124036
95.3071374293057
95.1848851304024
94.6016372531018
94.7974477749604
95.3064255764398
95.3828843184062
95.4065205488323
95.5597061762998
95.6887728589051
95.3297258685137
94.7833270586629
94.9802916256172
95.1693348474818
95.2148557660173
95.1468379108063
95.0886084476326
94.9930224423999
94.8836040142043
94.6843118298851
94.4967956664115
94.3514324775006
94.3712185896659
94.2634406031566
93.9088001976885
93.3776967344525
93.2122205814298
93.3646281498342
93.3673776502566
93.3203404167817
93.2198909781112
93.1185987768837
93.2229494439078
93.3092802454949
93.4405586262565
93.4492839621648
93.1494189426216
92.7675083838748
92.8088757447353
92.7861430447466
92.9843526315205
93.1441588299616
93.1355074130326
93.1803323493969
93.2104802142252
93.1723153838873
93.1525053668679
93.2490024131927
93.3487579402365
93.4349342328925
93.5193243498087
93.5496375144136
93.5651540307287
93.6210633806198
93.6269899279567
93.5792952863071
93.5159421536131
93.4058409247895
93.329079605079
93.23672865987
93.0464527077488
92.6391602418096
92.3855657604908
92.2811203863118
92.1917558396952
92.1271644254708
92.1314031958241
92.2003366198231
92.1561054201214
92.186075604616
92.2324094998003
92.3265617850294
92.4015558475639
92.5027206606082
92.5803682149519
92.6540625624916
92.6867902912465
92.6904572675972
92.6448280356512
92.5964776309816
92.5196920227376
92.4347319722367
92.2881612906722
92.0733592086434
91.7916198766518
91.5850872650364
91.4522239762246
91.3286968503919
91.2651072953371
91.1867280146206
91.1455196315898
91.1463272679723
91.2419621782208
91.3938149560584
91.5244896974817
91.656026958416
91.8003713733693
91.9798502447999
92.1607114724726
92.3333525651724
92.5074096165671
92.6756645343516
92.8406607067038
92.9964620652501
93.1415066498209
93.2806572032402
93.4134691296032
93.5167632075697
93.5995817472917
93.6918245085801
93.757220862078
93.7837847489636
93.7958633389931
93.8038629044633
93.8156352074565
93.8388022094696
93.8561074786891
93.8339601530409
93.815381600453
93.8120787440372
93.7832516094211
93.7319467030105
93.6747657907952
93.5879194878784
93.4915774245982
93.4139421912464
93.3926434557266
93.4264010928533
93.48183873655
93.5291383856876
93.5700055652366
93.6094043829252
93.6576193971703
93.7027276900236
93.7570370148735
93.8162437713367
93.9027205219377
93.9726165205848
94.0509851540593
94.123606676986
94.1891935330302
94.2364513624712
94.2778419684849
94.3067565702708
94.3538500705311
94.4081210746453
94.4370430979719
94.443118269004
94.4847229344098
94.5408995058303
94.5697945309664
94.6146394933213
94.6449145178144
94.6522505219823
94.6536894228627
94.6416398133621
94.6287892868003
94.6120417591388
94.5931272061053
94.5753662696166
94.547873397602
94.5151912578252
94.5150997692058
94.5467547219012
94.5791749890473
94.6089984961908
94.6462940467738
94.6980489487632
94.7393018542279
94.7713613229446
94.7913186860644
94.7979520372484
94.7912905538487
94.7814292124577
94.7859023717634
94.8070543322593
94.8536352384174
94.9225533827549
95.0037500546836
95.0824808573593
95.163516145711
95.2401573602091
95.3170896178206
95.3976474710435
95.4660410341478
95.5389268119626
95.6234407450956
95.6969981817037
95.7622435248161
95.841248994852
95.9249640665954
95.9882749708903
96.0410258718644
96.0919461828592
96.145434123863
96.1761782415944
96.179016117527
96.1638157822907
96.1327617409776
96.0663884000915
95.9587702159067
95.8137994214094
95.6400755481099
95.462200036107
95.3105465215646
95.1953179734843
95.1107250166973
95.0696324446598
95.0725883224815
95.0928508418492
95.1206464440727
95.1632074230321
95.2238516229059
95.2892036089773
95.3661266108598
95.453111279833
95.5449582699972
95.6378734686396
95.7267749780917
95.8180428405304
95.9147587302333
96.0028822180619
96.0737553214186
96.1412093243327
96.2001649039836
96.2386345999752
96.2601020849742
96.2645509241492
96.2602802630373
96.2453729013786
96.2101975522339
96.1632486733238
96.1045604771634
96.0366916669009
95.961732759576
95.8656412056884
95.7533020000269
95.633690324427
95.4997969933697
95.3186494876682
95.1022980647263
94.8616435828496
94.5737876449766
94.2292287360823
93.832375019219
93.3939928830432
92.9115590540391
92.3975433698715
91.8662114449039
91.3448785237669
90.8760215964394
90.4603098468755
90.1311126107364
89.9041346527016
89.7850461286064
89.7587629821355
89.8114284380613
89.924899259238
90.0719800616676
90.2258225107909
90.3827058535009
90.5366135786175
90.694632884525
90.8624043087431
91.0336461276453
91.2056486197944
91.3589380909353
91.4963954226745
91.6423041277643
91.8049301094958
91.9998976783822
92.2251310106078
92.4602916762026
92.7048806093332
92.9389618881264
93.1448960494205
93.331830530711
93.4727562749212
93.5682712770309
93.6149215481859
93.5942557384708
93.5072415472303
93.3729565244853
93.2215092638209
93.079001584295
92.9347398158494
92.7872416863041
92.629420257321
92.4332372655515
92.1728435859015
91.8549164226138
91.5128051744507
91.1712572165479
90.8495098617901
90.5689840623227
90.3276749154924
90.1086020499225
89.9011536151851
89.673895835182
89.3882603815998
89.0395034799749
88.6105854362604
88.1094594706529
87.554288937626
86.9655775407928
86.4141776390726
85.9647259550932
85.6407312698657
85.4583076478105
85.4004972560888
85.4126652720838
85.4529156792757
85.5076145132488
85.5661101218772
85.6073387682392
85.63340217204
85.6822005432409
85.7723708804662
85.9112211301655
86.0900881257053
86.3068490330879
86.5520433714353
86.7915219669151
87.0174885925962
87.2479887593418
87.4751206344179
87.6885747114241
87.8800924755446
88.038577135704
88.1656055798392
88.2638106780843
88.3340379803005
88.3959533164576
88.4469538190709
88.5015705887264
88.5532610056643
88.5903182266965
88.5983859150796
88.5822693477437
88.5096925404501
88.3797351014264
88.2052111711763
87.9704894482691
87.6975606893934
87.4256569914466
87.1755241969625
86.9644435369185
86.7775732089468
86.6012606476727
86.4147346231627
86.2038000811312
85.948566953909
85.6379397131436
85.2771587175193
84.8508456782318
84.3618214697625
83.8121791365079
83.196466970682
82.5191626632258
81.7871957061809
81.0354416019116
80.3028415252787
79.6329995291358
79.0766223837941
78.643421666851
78.3092246499992
78.0552785753997
77.8540805481253
77.7026816115357
77.6130541085542
77.5928150589458
77.6436010613004
77.7829140063564
77.9826492815852
78.2383857130585
78.5430439022351
78.8892963300693
79.2563194832439
79.6196392238224
79.9555740301246
80.2295809301897
80.3879015357785
80.4101733113066
80.3126778039538
80.0869055937483
79.753289206772
79.339013283565
78.8574944615503
78.3464725976937
77.8505825314655
77.4025453130858
77.0287479923853
76.7624261518366
76.5692897263696
76.4538756112921
76.4040575870917
76.4009784563798
76.4424528913075
76.5103733875463
76.6040124104746
76.7251107178674
76.85770115149
77.0011849804772
77.147182094851
77.2792133682604
77.4147385952161
77.5496403892542
77.6683797040724
77.7662423576542
77.8336201662477
77.8601764398644
77.8532201148172
77.851281557869
77.8713068998498
77.9214211061573
77.9891494790202
78.0512524975938
78.0805046025251
78.0872157416232
78.0812874431212
78.0654501101246
78.0372488710782
77.9932099128739
77.9059175752037
77.7859796346779
77.6626828627234
77.5417284091249
77.4420256975388
77.3826730006375
77.355952393031
77.3744383308254
77.4364115180007
77.5243565244847
77.6227758279616
77.7415760593967
77.8645158786315
77.9756830655757
78.0768814643458
78.1461235927338
78.1584605091694
78.0980909306011
77.9744590937395
77.8239733840923
77.6345235111776
77.4619606473158
77.3966642234682
77.4232115767293
77.5341518282515
77.7274637325158
77.9915744573157
78.2873284513755
78.5856482812668
78.9005436546077
79.2182486469155
79.5209003644059
79.8019190176579
80.0633829044781
80.3044614554722
80.5309300094752
80.7477227212872
80.9497510224693
81.1490162981651
81.3497861062225
81.5340797107759
81.7159500481853
81.907985483338
82.0940643140276
82.2799927376178
82.4615475910436
82.646234855841
82.8200525302317
82.9824593057042
83.1632597288444
83.3481632390445
83.5151085336678
83.6813234639668
83.8606692820695
84.0260609024591
84.189732703062
84.35551662754
84.5204849454789
84.6656678291252
84.8238390711718
84.9857546629405
85.1204509451616
85.2497519985324
85.4009488252392
85.5434379658535
85.6706193331571
85.7957131364514
85.8980555540258
86.0164304008346
86.1503696228176
86.2443785117376
86.3412701823759
86.4511489187913
86.5476141564692
86.6342354107914
86.7165154069423
86.7827870416343
86.863437376217
86.9553979074216
87.0249433562993
87.0912143432248
87.1884841109714
87.2767096346524
87.358411133127
87.4250349186651
87.5035657185394
87.6062301234716
87.6888825299238
87.7481786900919
87.8257715837104
87.9163421656966
87.9818042386225
88.0316088859145
88.082364379744
88.1139565717136
88.1350582630319
88.147247724816
88.1631074830092
88.1625289765911
88.1795767969149
88.1892620128831
88.1980608275758
88.222125312882
88.2148360730547
88.1631963536715
88.1406494529403
88.1489069635228
88.1635555156555
88.1682738302452
88.1277706026719
88.066039502526
88.033417017551
88.0256388016252
88.0351438309576
88.025978413053
88.0345587210821
88.0489605468133
88.0585003987253
88.0838608586487
88.1247721199391
88.1991353864617
88.2826970014288
88.3493674760926
88.4228210212023
88.5032735091986
88.6068412557743
88.7245148094831
88.8125687783855
88.8892414998495
88.9518294952178
89.027349977829
89.1312965320798
89.2319693107869
89.3061833731144
89.3565093325019
89.4395585217779
89.5397301448859
89.6121359170578
89.6570722901498
89.7227867624201
89.7830310560953
89.8397360727032
89.9042203243613
89.937292112463
89.9877617129843
90.0692749094316
90.1274058537349
90.1763180423279
90.2240186705774
90.2451049630616
90.2795059576495
90.3641853973065
90.4108379448551
90.412281202448
90.4369221595388
90.4743220783692
90.5059842882589
90.5743469923509
90.6077095934153
90.6177508411388
90.6711342964514
90.7049392095133
90.7154442368992
90.7221241399696
90.7504642862694
90.7791611810731
90.8125528034216
90.8310336949419
90.8309195817008
90.8587724670198
90.8861585626942
90.9008673610629
90.9233066144591
90.9496202276487
90.9688069890692
90.995375882936
91.0077261202115
91.0161435670803
91.0290279139257
91.0415414274844
91.0393583887684
91.0472390512999
91.0587391420388
91.054332956917
91.056510572777
91.0815564840846
91.1334585872567
91.1791880526931
91.1801179332816
91.1621895580807
91.1900990659306
91.2161089104297
91.2165601195765
91.210957361935
91.2032594427823
91.2217964125864
91.2499733801204
91.2312300359719
91.2169188025587
91.2290133453328
91.2468982956542
91.2650620681202
91.2215313217133
91.2067237465733
91.2510383093152
91.2593504335356
91.2491062077909
91.2418172823143
91.2627984563028
91.2995689312239
91.3093642080671
91.2932042828839
91.245876178917
91.2621822387183
91.3074937061232
91.2981371858578
91.2752524160973
91.2518298045432
91.2817056406813
91.3171254703414
91.3135654177426
91.3200646898249
91.3007136025256
91.2777250835754
91.2824142391995
91.3008960722151
91.295740149723
91.2775010640376
91.2599979652396
91.2677814075888
91.2605999746413
91.2574629281789
91.301746686239
91.3460815311409
91.329101447761
91.2734236299446
91.2263400879735
91.2075104643707
91.1804832036756
91.2130507550912
91.2775885314952
91.2688614848692
91.1963979334358
91.1718149797053
91.1546319403295
91.2059294501749
91.2411522011491
91.2292327662309
91.2385585782624
91.2049649277676
91.179378025759
91.194916178207
91.1946749664064
91.1656341704863
91.1043686627638
91.0428434482283
91.1013679584188
91.1818851124552
91.1758574964567
91.0960757842489
91.0077898431856
90.946895720898
90.9071126660441
90.9154668023213
90.8912624399174
90.91015025965
90.9411624494794
90.8785447052798
90.8524400685767
90.8566572752675
90.8213334634043
90.7895921606989
90.7270264960956
90.7162955035405
90.7043766926683
90.6831111165938
90.7173060579681
90.6529462612489
90.6044224573125
90.5574241000969
90.5373794191173
90.490016107592
90.4251978535362
90.4611946457812
90.4486253537488
90.47277156795
90.4565675485933
90.384438530878
90.2712472170138
90.1935640017412
90.1056813473892
90.098361271491
90.0986010765357
90.0402560868409
89.9122736817557
89.7717020936706
89.6493495990056
89.4959416912844
89.3495875828634
89.2494334210489
89.0760622065606
88.926340355832
88.8352435065484
88.6587199690215
88.4297949144717
88.2749327245128
88.1528930522652
87.956186247203
87.7321205340686
87.5709584403086
87.4130607985426
87.2625296270444
87.0634215005234
86.9469489781425
86.7357503954868
86.563749115568
86.5509604069095
86.3902116819843
86.2080957128233
86.2161052814384
86.0979648454171
85.904800705819
85.8259042637962
85.8416780638829
85.8882854093074
85.8981248977686
85.8213160188318
85.7667343768579
85.7043011583868
85.8432260708844
85.9434923702376
85.7455325674913
85.6570144938509
85.7008199193436
85.7221825405457
85.7587069697586
85.7686035300812
85.8067371785507
85.8987605443016
86.0063917417434
85.9838265870894
85.9444976759365
85.8965432201735
85.7983795118557
85.8227740440324
85.7498537116912
85.6107990468852
85.654380142622
85.5883495210645
85.3992921433681
85.1526988244901
84.7354175411394
84.5600227436869
84.6022219929549
84.346440506379
83.9782853238981
83.7454511935585
83.3998457822078
83.2730732707992
82.9374282683459
82.3804193741551
81.9570260209839
82.128626767769
82.2304047181468
82.1160536313126
81.9426424211087
81.8789870917371
81.9668740366301
82.0031972402714
81.8483911891021
81.8586517662304
82.3072682128561
82.5034990187189
82.6392314462414
82.9799411875286
82.9464737505436
82.8515001741693
83.2869452223315
84.0489148508312
83.7888101952074
