3596
4000.36533379555
650.420452594757
1
128
2
98.7447925665651
98.8036063120485
98.7691791716048
98.7385533305171
98.7076722700978
98.7022353593742
98.7039739687999
98.7412832374928
98.7380935916481
98.7308331778902
98.7189232036242
98.6914575588505
98.6793695603193
98.7215142479098
98.7232010583613
98.7282146413975
98.7241041354516
98.7554670945148
98.7341307372549
98.6920643274498
98.6781605813585
98.7186318062511
98.7229698409107
98.7343662567155
98.7315090442025
98.7475228089436
98.7149353871175
98.6968626569521
98.7313321681967
98.7864772903429
98.7290275536536
98.6791259040549
98.7052721303499
98.7618253200153
98.7497283886153
98.7173818464357
98.7565680295174
98.799417823266
98.6761687995613
98.6385024798999
98.6606406082242
98.7234747334306
98.7179533786204
98.7101912989442
98.7563483097491
98.790584394524
98.7282358967494
98.6854654451337
98.7054370944991
98.8153530736081
98.7373608768769
98.6467871513789
98.7511309002404
98.6756994154642
98.5729470409264
98.660584240424
98.7236488509031
98.8454792131466
98.7314017371585
98.4863119885971
98.5116725966711
98.6221178095114
98.6939566482226
98.6982174550494
98.6944389638974
98.7063599059333
98.7096707633103
98.7538321180371
98.8704270114153
98.7793007810157
98.550638851406
98.6121268147694
98.5572074159472
98.4860630079277
98.560369318996
98.7077644460467
98.8359500563006
98.760184923548
98.5690947131334
98.5433052838124
98.5445641222608
98.7353184847073
98.7697830243087
98.5892820442895
98.760807978275
98.9005255817987
98.6025825834681
98.4432667703145
98.5162495131951
98.6125333129887
98.6558191087162
98.7147125697505
98.7059497105206
98.7062402671041
98.7335597582122
98.7683996296893
98.8642857583701
98.9690980902527
98.977629930159
98.9617576438198
98.6093071816648
98.7327549576758
98.4550222021519
98.3584256714044
98.7702423097962
98.3203359053291
98.0465286967213
98.2533616338173
98.4625956636156
98.63311617458
98.6677291725117
98.7371029849598
99.0815435453255
98.9709892462447
98.3572517842798
98.3358814195052
98.4773153010748
98.6821778956413
99.1235631043483
99.057754025212
98.3463586069135
98.3968130279563
98.4835429569172
98.6292188980941
98.991720170842
98.7428387431356
98.1971191490997
98.2984257514724
98.4588143749996
98.5987121457361
98.858429985625
99.041424656879
98.5702404511471
98.3837747164167
98.6681674509366
99.1102573706835
99.1132116927605
98.3331182338726
97.9538302439838
98.2257815736767
98.7597915539803
99.0541291940041
98.5131402182157
98.2789904266567
98.5875082380478
98.5460232249593
98.2728996155054
98.3992689206008
98.5793526829281
98.8382402323789
98.7459897176256
98.8115679965227
99.5411373445691
99.5828023163808
98.7791877570291
98.5396973579468
97.8059523159449
97.9007548934822
98.1781690422195
98.2489269202226
98.4014229106887
98.5275237315486
98.6702915217491
98.9888227309786
99.0149665577167
98.5760491825599
98.7224963251423
99.0075284549595
98.7084198503241
98.7615120937544
99.1463499497398
98.4580299369409
98.12153319991
98.7056632711202
98.3742348743473
98.172462190564
98.7175827738931
98.8573406627486
98.3086542384001
98.365977165989
98.6209649385304
98.8687508569258
98.9838995064234
98.6842340083032
98.5280090752709
98.6365994854699
98.7605591263637
99.2202561841966
99.3434528458891
98.7334683216522
98.1613098507395
98.2024150347455
98.5300483712119
99.2328178458849
99.0322259261477
98.1660612683787
98.2103180511373
98.4416144921052
98.54074324139
98.6453034979872
98.7173075297184
98.8105140625282
99.0246610615047
99.4060609827749
98.9480738479945
98.3893998294748
98.529195177185
98.8277432011777
99.1328003383068
99.3679741218971
98.8697066974662
98.1870472694944
98.2817101859654
98.5386389696704
98.876052550715
98.7761462892773
98.3221186390541
98.4122023501107
98.5764076929708
98.6702035077414
98.7290883245104
98.784679186764
98.8458588935391
98.8348195896577
98.8267006102557
98.8835559265278
98.9633466555013
99.0479111735563
98.8872733434587
98.7134032978503
98.771084086814
98.8612855033654
99.0772679926697
99.1160814685265
98.6441531691413
98.5597975979866
98.6407671344269
98.7071367955267
98.7672645927493
98.8345277522852
98.8704493028413
98.9348188671949
99.1099280828953
99.3555677129065
98.8875062728729
98.493103575132
98.6500031621037
98.9537726538853
98.9168663637244
98.5493487600792
98.5526961606101
98.6794830627178
98.781507843274
99.0078813086633
99.1919778792609
98.8002675798769
98.5663654928529
98.7601988894075
98.6659187151454
98.5503293630418
98.763859480857
99.1366056703269
99.5283508546014
98.9187616456672
98.6283019199616
99.1350108845147
98.4150055019351
97.9527998663394
98.2466253601483
98.7876725966798
99.6524115770155
99.0259492366508
97.6160276160839
97.8432686807839
98.3540157826277
98.321111790241
98.4684090097986
98.8086629439176
98.9875809985635
99.1236719530053
98.9261740317267
98.5733013536881
98.0272085257458
98.4389884795499
98.6741264687988
98.0981073587363
98.1451261485169
98.3984268734574
98.6713572103048
99.0031232322946
99.018095138724
98.7344383240421
98.6512293834889
98.687468555443
98.9804243772501
98.789794982023
98.4639184692972
98.7076852809764
98.8920682022092
98.6641234321828
98.6301256741036
98.800842596649
98.8836763757767
98.8790744070597
99.1265009251252
99.4728447544931
98.9118553803446
98.5484956147737
98.7548209828222
98.3994046666864
98.2404556716464
98.4958257159748
98.6454154426328
98.7221427395059
98.7765820611343
98.9553733956963
99.1986312059
98.9197398227077
98.5650960703667
98.7082447902411
98.7969650728967
98.8848666426159
98.9377086497609
98.9507986911956
98.9472365695899
98.9604777594058
98.9966098034779
99.2864154430889
99.29449163571
98.8330230749431
99.1180875004138
99.1932759057254
98.2724263351872
98.2187031019563
98.5056773357503
98.65982265949
98.7067131995977
98.7956060098313
98.8354648258006
98.929283841528
99.0442550934732
98.9261960781349
98.8650163939305
99.2187478316973
99.657704299203
99.4924285512805
98.3590439516329
97.8509542532827
98.3220176328299
99.1377868848552
99.2509045812234
98.6637773384392
98.5080514444083
98.139847266868
98.2485960473968
98.4973481618118
98.6307728778398
98.8038466824044
98.8535803649693
98.8638031251945
98.8657781966965
98.8906338184939
98.8493115974234
98.8836451085037
99.1357076283733
99.4438836603638
98.898899456893
98.4222838587376
98.6177756289613
98.8418064169789
99.2054072665404
99.3514320963928
99.0901460892887
98.9300770357487
98.5345616420448
98.5497729949178
97.9984356656526
97.8109208956478
98.1127674279327
98.4179723825784
98.6430700543357
98.6675644531981
98.6292582433041
98.6638291718909
98.7626952894606
98.8213987683996
98.7035356462313
98.7155273747208
98.8669582816006
98.9892198772295
98.7754575374405
98.5990265968722
98.7561622983354
99.1081404240741
99.4442819161868
99.0619118425727
98.2353460069804
97.9919346998028
98.1891794561815
98.2401782317487
98.3968257942636
98.4632382559296
98.6165507804511
98.8543446133371
99.0624110237365
98.9220639632864
98.4999031780474
98.2857795672705
98.1127209539163
98.4753374895767
98.6818909259915
98.5371608189589
98.6970628819099
98.4226181740033
98.1565216172296
98.60202911803
98.8309874514156
98.3856124808016
98.3515587525258
98.1915160257306
98.0834644682698
98.3037928644565
98.4626997818367
98.561441612138
98.6090633913383
98.6680992190137
98.5337153295224
98.5084268424172
98.454793351304
98.4406347557168
98.5785471236526
98.5073942957146
98.3069217189995
98.3602138387618
98.265346155839
98.3198593259141
98.4422801367341
98.625995008716
98.7993533234242
98.5778148287764
98.4286181931742
98.0324728410954
97.9289553062266
98.2200041433644
98.258122640506
98.2347681006107
98.3045290358378
98.4403822418082
98.43837973811
98.34644443508
98.3145540612844
98.3398087202349
98.3284354755682
98.3513433445891
98.3160788199587
98.2954047968148
98.260999875485
98.3174403033634
98.4094078187923
98.5876849956148
98.7113597486946
98.4442404789226
98.2024296468302
97.833997997411
97.8036411580167
97.9781756804429
97.9027986476952
97.9803856577967
98.085683450157
98.0457943257331
97.9955355908623
98.0890671166621
98.1045960218749
98.1663926603183
98.2179473606949
98.1991014045306
98.1652357187036
98.1918222368468
98.0108460050571
97.9293151787523
98.0190009117971
98.1177467523499
98.175988594662
98.0852812534125
97.9768459438598
97.9767062235151
97.877663712313
97.8997699315466
97.8463196478006
97.8336827629954
97.9146551580742
98.0040718202667
97.9861146514758
97.9869413820417
98.0603493160544
98.0024293561969
97.8613147556568
97.8631341716899
97.8917114220823
97.9445967520865
97.9459943068219
97.9160731988501
97.9307342538439
97.9080619439869
97.8278476986148
97.7786518889983
97.832290530765
97.8488175665909
97.7936727389214
97.6667410123061
97.5742004589636
97.6746426945122
97.6771673043662
97.6679178530362
97.6875874993211
97.6937834156522
97.678937719238
97.7159812384005
97.7128356053168
97.7178206668671
97.6728261988264
97.6534459225392
97.6357331408773
97.6257980059565
97.5396018451458
97.5272963163358
97.5243194991315
97.5061852204931
97.5662226964465
97.601837011311
97.5538831794925
97.4713907647724
97.4240818285864
97.3931070791665
97.3700957601078
97.4226395363267
97.4797264961254
97.4663273836439
97.3866612740694
97.3249076690543
97.3298963813469
97.3906672949633
97.3542259729701
97.3199216754475
97.335592848195
97.3602829270347
97.3116065233572
97.2169821070032
97.1466570726153
97.1355330696661
97.1442635067302
97.2021937192896
97.2360379745906
97.1345587231011
96.9956927941253
96.9709334524211
97.0249920934196
97.0492341408051
96.9823902113313
96.9977607491489
97.0622592476233
97.0294836914622
96.9346097019949
96.9213825904341
96.9224211061194
96.9578092415231
96.9512061568415
96.91347562669
96.8429306470111
96.8718537020674
96.8841433880061
96.8507518078378
96.8124411458758
96.7659542429056
96.7324873252475
96.7454121490482
96.7286595952638
96.7235457718916
96.69167400183
96.6529806729709
96.6622345974037
96.6838924656766
96.6486588320206
96.6128712438756
96.5690530393886
96.5943770418004
96.6233893113381
96.5953303847519
96.5539282447958
96.5535411849621
96.5222419567318
96.3902412345666
96.3246357734554
96.3473100896932
96.3600190444293
96.400775403625
96.3447169057149
96.2784505303902
96.2811846269523
96.3201026314035
96.2944396158457
96.2507799750835
96.2262469759453
96.2159467474108
96.2029130052547
96.2102222725897
96.1949310426576
96.1674053920044
96.0989679223048
96.0704904618254
96.0752020706283
96.0689879083562
96.0524591582474
96.0365377012439
95.979842704349
95.9619119412159
95.9523381221776
95.9367499196959
95.9306798938453
95.9119668432011
95.7943359597987
95.6814456599451
95.6409855966473
95.6949866225057
95.739519165308
95.7491748073506
95.7072574406077
95.6695702900987
95.6459734122328
95.5962370669177
95.5478481549022
95.5654009025622
95.5244385221889
95.4369436008483
95.3822728436016
95.3626604720374
95.3541634145721
95.3847232347783
95.3673309375125
95.3229675842367
95.2555740484812
95.2396164453664
95.2770728518802
95.3021671498788
95.2655434666259
95.2303856354131
95.2633694185121
95.2808937373151
95.1993125390958
95.1474932658996
95.1715793282981
95.2062806638738
95.1715635989321
95.1529279172208
95.1476693136365
95.1005251376817
95.060422477442
95.0646680263148
95.0295767966164
95.0252998593547
95.0310819326401
95.0104052590503
94.9953344997177
94.9772303283157
94.9642482075776
94.9361768957145
94.9029089036048
94.8795713628802
94.8097317270962
94.7792093999771
94.7747813332751
94.7794569032692
94.7308183920329
94.70938669606
94.6900837526748
94.6749244806484
94.6540054310575
94.6321778022968
94.594565941126
94.560833068791
94.5480776863228
94.538515559274
94.4917690982277
94.4330178908949
94.4382216381674
94.433625601779
94.3748538641389
94.351043894563
94.3668435362378
94.3235506824292
94.2588243624284
94.2117531426388
94.1795854721813
94.1584504686763
94.1088019022855
94.0520012811831
94.0016050155261
93.9675078829191
93.9424691012194
93.8658383674473
93.7738441984447
93.7436702587534
93.7009220391733
93.6958107425384
93.7020549095843
93.6639503847385
93.5988449381416
93.5640684332317
93.5270606837428
93.4784065229237
93.4302019225494
93.4151521479803
93.3939927461478
93.3978383547269
93.388850430992
93.4231251203263
93.4129520529585
93.3756754619692
93.3982237986034
93.428654673221
93.3859695402304
93.3802430296577
93.4084936990531
93.4337529214995
93.4286573480781
93.4058032817878
93.431157100536
93.4938666196191
93.5257822771302
93.5318658817421
93.533802655403
93.5481582724519
93.5447937659881
93.5497254456422
93.5310736991458
93.5096333418468
93.5071847555191
93.5350878253829
93.5430969815438
93.5116407081555
93.5081321640074
93.5616784872287
93.5606620213183
93.5175745367425
93.4914742344094
93.482694684438
93.4643868761601
93.4567413484278
93.4482265291584
93.4545494722841
93.4521404510342
93.4297975866231
93.3933779992477
93.3967441339643
93.3882506781565
93.39535014465
93.4233419518801
93.4276990067344
93.4093184205631
93.3908351332623
93.4032747876269
93.3925230356849
93.3600637075766
93.3577924497598
93.3702239199026
93.3880139584772
93.3751649212262
93.3539351739027
93.3109332446943
93.3116405744787
93.3345506058276
93.3611305441027
93.3662314482694
93.3766436393582
93.3764760959903
93.3428044279619
93.315787258005
93.2923423878922
93.2605691879805
93.2897778923939
93.3130566994834
93.2928444297354
93.2786019267986
93.2957625749928
93.3280206914669
93.3487312050482
93.3211691634815
93.3165477159129
93.333977591679
93.3404276973747
93.3453909643226
93.382393346958
93.3926403441829
93.3944873307679
93.3950863442772
93.4015500317723
93.4711768986401
93.520786809953
93.4978482171017
93.53731184701
93.5951366837424
93.5836615950338
93.5772343095365
93.5834427055535
93.655870769964
93.7434510189485
93.736648062315
93.7409574655227
93.7338584610973
93.7193311558047
93.7779074746589
93.8279266102824
93.8408405132734
93.8423344131951
93.8674880016532
93.8969662111438
93.9161971172932
93.9494652426902
93.9656105218333
93.9792468141198
94.0146880993804
94.0025099761981
93.9867574579828
94.0211060276893
94.0465768007846
94.0608673078706
94.079455652618
94.100208058192
94.0851563043121
94.0891571331303
94.1716485833458
94.1904203073634
94.1456631250672
94.179573192263
94.2335733895442
94.246921395931
94.228197087952
94.2175107893879
94.2474102398205
94.2998473153434
94.3485242386478
94.3425234010865
94.3061879316593
94.3222356633719
94.3256782602695
94.3197295760627
94.3404236992058
94.387266467262
94.4471698367863
94.4887439238746
94.4892640500593
94.4893972514143
94.4917716474553
94.4736144944571
94.4909729447465
94.544881168954
94.5529864728227
94.5573623817007
94.5765638096707
94.5806061216116
94.5750410377979
94.6251798244548
94.6600287947492
94.6768346070442
94.7058529555275
94.7076541810372
94.7173232799858
94.7420377942384
94.7642707784032
94.7635075828253
94.7570052777062
94.7679076307622
94.7724701802046
94.7768872764845
94.7909288797011
94.7983851958929
94.81928922476
94.8580155106805
94.8878670935823
94.8950896202038
94.8543076807727
94.8593196166133
94.8916438102637
94.9273748268168
94.9308962018565
94.9159353032136
94.9333436461554
94.9690798280053
94.993755192149
95.0395349343852
95.0786456513697
95.0684258928925
95.0325470877347
95.0197713503586
95.0280929756998
95.0377214836764
95.0851702026074
95.1323066509601
95.0865572785312
95.0580096677692
95.090836374358
95.1311697745184
95.122610847669
95.1179156813436
95.1301524789307
95.1465945857306
95.170992222616
95.2207578383632
95.2379580255944
95.2352134445116
95.2557354958798
95.2429164158951
95.2410944155753
95.2673627850135
95.2729582567391
95.27762642923
95.2968219730082
95.3528013599819
95.3575643133285
95.3279672311271
95.308899603527
95.3426101042969
95.3764759015283
95.3709689306721
95.3522851861722
95.3457138132288
95.3803925995256
95.4147692230141
95.4214977198584
95.4257325479916
95.4254218171229
95.42099975952
95.4234775875107
95.4330457367709
95.4349994891956
95.432222868949
95.4432671051803
95.5021101998955
95.5241526260067
95.5212144800187
95.5172808548121
95.5488209995369
95.5693013543396
95.5697485682607
95.5487802550536
95.5770681130686
95.6239931934969
95.6238983039505
95.6324623153805
95.6179618973914
95.5880237706892
95.6056985990817
95.6356543337761
95.665226941975
95.6759543023426
95.6545428150956
95.6449560648289
95.6677618888407
95.7055339016798
95.7321456850076
95.7205742468892
95.7250365040335
95.7415496766664
95.7286396347771
95.7072813100717
95.7362429032639
95.7845532111636
95.7857325886981
95.7839902270749
95.7732549623762
95.7661647722519
95.7743594778042
95.8124497151961
95.8674321561917
95.8939579428782
95.8659076683176
95.8465370064726
95.8723803366707
95.8914137599187
95.8724428266215
95.8681509981257
95.8926384153039
95.8869912082845
95.8853651031949
95.9341095566495
95.948923896051
95.9416395970046
95.9541596036005
95.9632351027041
95.9626654956261
95.947811158382
95.9498089197158
95.9697685634541
96.0026603871016
96.027940437161
96.025935637424
96.0307340179633
96.0440051251432
96.0778689029382
96.0622260560415
96.0334941471515
96.0477491851652
96.0402750663658
96.0546745547251
96.0864492338114
96.0951837338938
96.0971401649418
96.1242201305233
96.1408708631319
96.1450411278462
96.1462646648457
96.1396756585085
96.1515638520292
96.1591758881512
96.1342751167228
96.1449544633324
96.1795447493008
96.1875314935013
96.1699547720392
96.1650339365099
96.1662982126688
96.1857330937054
96.2168014939991
96.1951956344527
96.1881322038356
96.2385219598847
96.2529318785867
96.2759574853577
96.308836256512
96.2939068208271
96.2703791393911
96.3048519913843
96.3160860536481
96.3182472799479
96.3295230970782
96.327241900713
96.3103998884186
96.3008002319921
96.3151274366106
96.3406051656353
96.335931818195
96.3036496723133
96.3284944220803
96.3737895306367
96.3576984349255
96.3709603590859
96.3907480992549
96.4034200458899
96.4031872201329
96.4146481856919
96.4240195430951
96.4062138186912
96.4188777842422
96.4305280728912
96.419415635411
96.4501434167616
96.4710093202798
96.4581596868626
96.4535131383675
96.4639270570955
96.4624768732528
96.4627116803795
96.4728539896871
96.4868982362331
96.4884530801844
96.5016411176208
96.5244698861101
96.5481586215045
96.5438519147075
96.5337067926215
96.5335773930716
96.5394466244988
96.5370345875149
96.535082303024
96.5584969735908
96.5551661965714
96.5338402682071
96.5231125894993
96.5450192119179
96.5645204730367
96.5288244765494
96.5506603468613
96.5995028821203
96.6162162813894
96.6089165263575
96.6071787073152
96.6149828003151
96.6069242767108
96.5780406615764
96.5812074634829
96.5935961121237
96.6006324081336
96.6143777669262
96.6182113706804
96.600524828475
96.601155439487
96.5914851837431
96.5736659061605
96.5893796733032
96.56894790285
96.5555200850936
96.5290237005526
96.4861473487942
96.4679972730463
96.4466084872769
96.43148158166
96.4503566939734
96.4891566640847
96.4489785973818
96.4342054666185
96.4531067890818
96.4549741001289
96.4375478608768
96.4031698572379
96.3927028616998
96.3922628855856
96.4077661591945
96.4115444100494
96.3930261132509
96.3975025359692
96.3867673291622
96.3581030241407
96.3559701724848
96.3370332191176
96.3120159954876
96.3032033615818
96.2840106630912
96.2670185952802
96.264344209307
96.2437519626787
96.2156879649862
96.205528106047
96.1795325517277
96.1708924235734
96.1465839020503
96.1300610525589
96.1418910023064
96.1381435895987
96.1322250866326
96.127191686158
96.1483372818293
96.1410803354666
96.1025841156729
96.082044240527
96.081669062181
96.0792565751603
96.0878834862
96.0848067973246
96.0419484219997
96.0075381227162
95.9963858925266
96.0193062274533
96.0315073172488
96.0212385643301
96.0183448683915
96.0248605899076
96.0001344082219
95.9712840404714
95.9575000596357
95.9271674763917
95.9024547571496
95.9002085583969
95.867339292593
95.8207219484751
95.7750361760991
95.7264690087587
95.6949618697941
95.6805119714724
95.6472271929335
95.5957221451856
95.576357475576
95.5424964447088
95.485618808981
95.4639363465085
95.4802992587438
95.4727396091216
95.4022018680551
95.356799764338
95.3658699671039
95.3372713985674
95.2818486718831
95.2899991166678
95.2913942774073
95.2932158202802
95.3068475025141
95.3151260938453
95.300522752883
95.2825952826841
95.2836353903405
95.2682111062603
95.2694521891272
95.280801317839
95.297065371781
95.2949396989685
95.2920799903306
95.2999832353328
95.3212661225224
95.3250347088293
95.3246310338133
95.3429475841229
95.347261706622
95.3490232731336
95.3425744493865
95.3384196091273
95.3464181656982
95.3359072362311
95.3548742145725
95.3695066277521
95.362151337829
95.3376049143275
95.3447369093128
95.3484718525519
95.3396329402886
95.3447530530098
95.372518670103
95.3917898613225
95.3968376701364
95.3790032517885
95.3932865434311
95.4423887658416
95.4455148392523
95.4442699597181
95.4487123976977
95.4260390232281
95.432325541763
95.4777753286211
95.508838627464
95.4902428022353
95.5003330171568
95.5271119824338
95.5420629675153
95.5323045301729
95.5279122067623
95.532253763362
95.5425661717866
95.5485297782532
95.5602131017571
95.5884069317879
95.6009395862653
95.6130469743508
95.6480836482099
95.6672181314807
95.6928788849733
95.7261330471081
95.7534884367588
95.775857493884
95.7753698874458
95.7681943953801
95.8133781785817
95.8381333713883
95.835825297419
95.8325175721392
95.8129018161881
95.8147148305206
95.8274540432042
95.8548186952929
95.8872408408122
95.9229433464858
95.933036742068
95.9192025568406
95.912657449897
95.9224100743775
95.9561307598508
95.9728269715187
95.9841462408421
95.9792045951351
95.9997973002428
96.0021704743127
96.007086609991
96.0188989732482
96.0379732355279
96.0547660790185
96.0679820057545
96.0731336833881
96.081086754641
96.0977855545326
96.0999366435748
96.1011929719628
96.1181290105333
96.1240461838637
96.1229620098142
96.12355022503
96.1414372612946
96.139194841972
96.1380612234129
96.1522749253477
96.1639810417833
96.1806514305631
96.1923994975144
96.1697389541364
96.1585258201945
96.1723091289978
96.2049976668639
96.2117897715624
96.2029699071339
96.1981978450943
96.1978963771627
96.2190755919131
96.2301641046766
96.2264060052542
96.2357489919471
96.2461095384446
96.2616163875559
96.2635970920697
96.2644255702959
96.266489277244
96.2721798041451
96.286657333029
96.2977506706646
96.3046270365678
96.3055295216962
96.2775712068424
96.2677380870779
96.2948489391814
96.313960866404
96.3185828004854
96.308607560989
96.3114419066616
96.3357790108435
96.3448776370059
96.3485700866202
96.3265276009806
96.2951793368681
96.2824617549542
96.302215736475
96.3348506286812
96.3633998108764
96.3545671446199
96.3411250613258
96.3225670273644
96.3212943090919
96.334960509571
96.3569056645048
96.3703710633446
96.378088779319
96.373380008046
96.3646953135271
96.3688345192325
96.3818717483627
96.3806523503055
96.3694685021902
96.3618985449549
96.364746944123
96.3656492697291
96.3614029180384
96.3583037514424
96.3855996826859
96.3846139046201
96.3736661269042
96.3800472096089
96.3765609241662
96.3868997296178
96.3978806929942
96.4083560002097
96.3946695478155
96.3680337179823
96.3773395259759
96.3808527183623
96.3640438973685
96.3840772051546
96.400588220979
96.3664513656404
96.3522416215902
96.3698014527251
96.3837758829994
96.3839190560882
96.3945584880509
96.4007532345308
96.3952057114344
96.3948222340507
96.3977520232756
96.3935836408691
96.4022739247872
96.4111202548179
96.4161008347623
96.4088685076602
96.3988222112567
96.4020153763239
96.4148774323638
96.4163750233756
96.4284922057445
96.4241297758854
96.4089557425299
96.4102076771531
96.4100731634157
96.3966867059519
96.4018718883285
96.4080260440201
96.4295695512187
96.4290530136959
96.4194182451352
96.4262099787904
96.4404081739059
96.4514268297922
96.472798294599
96.4783510422669
96.4621918533413
96.4588783300205
96.46266112557
96.460876590947
96.4652479388295
96.4766029632931
96.4713701793785
96.4613460942457
96.4650737682246
96.4692840625867
96.4798223344381
96.4938500895253
96.5041806972247
96.4770486849422
96.4697556713857
96.4963523115386
96.5041994486282
96.4812567689553
96.4841205249563
96.5135183404217
96.5331677228653
96.5192289172095
96.5067120601198
96.5027167117455
96.5197811518745
96.5182096516955
96.5266165100592
96.5360952211493
96.5268191784257
96.5121511723251
96.528299231765
96.5411350165876
96.5298706548004
96.512885133908
96.5272920605989
96.52818653486
96.5049057196028
96.5119359208728
96.5288217223706
96.5260004143605
96.5230140332955
96.5225932256526
96.5357867639512
96.5402316541378
96.5433502202076
96.5444445209697
96.5278913498723
96.5381668258244
96.5556897517504
96.5482091250752
96.5557384089429
96.5715586142147
96.5797917058291
96.5637744165496
96.5671910237538
96.5870460050683
96.5698459630981
96.5535024528211
96.5667709950594
96.5656542526366
96.5880709878071
96.6113891453598
96.6043010554967
96.5918988394161
96.6039094964744
96.6202017314697
96.6373149215
96.6424692576251
96.6632398694958
96.6517639279996
96.6212302142852
96.6375753151951
96.6333763497153
96.606838358833
96.6138793738717
96.6217644555022
96.6331665112419
96.6375548687789
96.6613106068417
96.6665575491545
96.6691141251467
96.6563031834263
96.6518820610807
96.6792511970917
96.7034665487319
96.6615708835926
96.6360464318928
96.6835706057843
96.7328837863166
96.7068745628775
96.7102596117924
96.6923056970567
96.689322993214
96.7073044480763
96.7150093843972
96.7062587064639
96.7040501997646
96.7157388623929
96.7362585094452
96.7364765113022
96.7786713508722
96.7813109584928
96.7776649307039
96.7903020667398
96.7741631305762
96.7706817242879
96.7859304701599
96.8062479930098
96.8139256123597
96.7619729164056
96.801176642646
96.8282671246715
96.8007442048458
96.7665170585752
96.7672174448202
96.7923409591589
96.8239996371432
96.8483166285907
96.8688089813515
96.8559805192208
96.8476252386462
96.8213170827758
96.8251741260115
96.8111347381845
96.8195760117292
96.8432749023285
96.8281099484838
96.8194574016806
96.8366264736302
96.8625072684075
96.8926655891078
96.8518292441972
96.8244303812376
96.8558308462831
96.8844321199119
96.9037995405925
96.9306445545376
96.9091956533335
96.865010866182
96.8786715725887
96.8852810394284
96.8741811109077
96.8855783326503
96.8588927251745
96.8723608398875
96.8885523998903
96.8945331523019
96.887955586522
96.8787817782371
96.8904384154215
96.9084933728116
96.8848150414789
96.8911434733328
96.8840369116729
96.8764736383332
96.8971999780731
96.9299330750328
96.9220986931158
96.9150597423793
96.9102526184382
96.9155615033662
96.9370732427245
96.9488300380081
96.9470420586279
96.9173865837245
96.8824310216101
96.8895950857773
96.8840320351986
96.8645708327151
96.8700720932366
96.8915018646405
96.9013247331496
96.9326141916959
96.9115705972162
96.8979097587826
96.9112661842513
96.9446823336897
96.9418927965468
96.9021747047032
96.8801208148231
96.9314384625296
96.9632090912461
96.9611346722962
96.9078547385776
96.906994633452
96.9202644319857
96.9229838270235
96.9162293806227
96.9304836650851
96.9244789463263
96.9329290322647
96.942802058186
96.9674861667198
96.9471261114854
96.9043534757339
96.9007451367649
96.9326337519773
96.9235966593306
96.929154997744
96.9327351720866
96.9229750142839
96.9178637741957
96.9185810602706
96.9185124989445
96.930433466567
96.9411484847097
96.9734686977765
96.9386039185686
96.8986639483462
96.9138632024934
96.9458086459052
96.9382155015281
96.9587503258705
96.9589762144682
96.9334555583189
96.9578716069495
97.0064186138249
96.9893530336118
96.9679934309329
96.9743577745851
97.0050881143469
96.9693467691459
96.940126358067
96.9148798145657
96.94379740754
96.9649436713222
96.9915220205027
96.9944583436905
97.0348399551728
97.023870183531
96.9958921163253
96.9773812927865
96.9704090954468
96.9835704305578
97.0316938147664
97.0282238357918
97.0261048041582
97.0132885685653
96.9852158830246
96.9706989274735
96.9837840303882
96.9431986657495
96.9296709326321
96.9604108783754
96.9881202807946
96.9546662915982
96.935438136451
96.95470186281
96.9885231900854
96.9706966531326
96.9791673146852
96.9999225790679
97.0186238021901
97.0189487426474
97.0284158108823
97.0181353878009
97.016575646923
97.0062280824904
97.0151388874564
97.001224738261
97.0038119995641
97.0017846768077
97.0079643483463
97.0366418795958
97.0615652293539
97.0292821244049
97.0346707006989
97.0441296184751
97.0619917772577
97.0382374335365
97.0159217305608
97.0393487783513
97.0634951359724
97.076091999267
97.0829421351306
97.0545678043484
97.0415298110626
97.0146385335784
97.0235279803915
97.0165265669564
97.0255367779985
97.0402907147625
97.0538840620896
97.0150320163967
96.9954260071499
97.0574497659573
97.1036451079219
97.0517074162414
97.0320564268002
97.058739609233
97.0961976441453
97.1112882721302
97.0952285316275
97.1030502429285
97.1223701781265
97.0862169951594
97.0720215345643
97.0745033463018
97.089785681423
97.0928529727933
97.0914557603295
97.059914390771
97.0679120112478
97.0627481726142
97.0951771495805
97.0981030820337
97.1202138080032
97.127605626358
97.0931512775427
97.081233327561
97.0954648485383
97.0815861840636
97.0613940396968
97.0580907532892
97.1053756826014
97.1027197478197
97.083702060796
97.0426279569452
97.0514677329779
97.0809978020394
97.1076804085426
97.0949319951243
97.0890309536467
97.0886576992323
97.1156285468437
97.1029040662661
97.0806007239081
97.0806924444187
97.1189602990629
97.1022159029601
97.0887010720746
97.0797287111394
97.0515420988379
97.0413804013933
97.0664016785482
97.0605268053911
97.0768797466738
97.0674316934652
97.0674169959611
97.0529652634827
97.0993883449696
97.1399674336975
97.1516278625179
97.0953601299357
97.0700962917857
97.0413232031491
97.0261134716951
97.0371526159143
97.0768696907184
97.0853935708645
97.120858051168
97.1555810017879
97.2124974948676
97.1873692289142
97.0950189295802
96.9849364722816
97.0906797043527
97.2147743374618
97.1651224459222
97.0513048646981
97.16157282547
97.1861088406913
97.0617245232822
97.0523628773622
97.108738609885
97.04096029064
97.1511071828009
97.1537065252447
97.0812748541327
96.9620468000515
96.9554671705182
96.986574617642
96.9417411379486
96.8935359520961
97.0585463063118
97.1136764547435
97.1311347192816
97.1564038829604
97.1706123626756
97.0943069058243
97.1298290149927
97.1045044139921
97.1148490564866
97.0867276787607
97.0532133493184
97.0209922624467
97.0813017237916
97.0831060407111
97.1544836746943
97.1513604497375
97.1578470166068
97.0978798281178
97.0545694417937
97.0224421575731
97.0694880723476
97.1318641887782
97.1361002205605
97.0602895479335
96.9847827101292
97.0817336334826
97.1023795808746
97.0767291649225
96.9193343466987
97.0240724546693
97.0025174398757
97.0574396891669
96.9138242856549
97.130600964151
97.0646165838009
97.1072615968894
96.9829323375277
97.1031562940921
97.0271796687015
97.0722978233289
97.0630184471287
97.0775835407544
97.0763805052109
97.0878947007553
97.0838353025564
97.0581780570883
97.0978708477528
97.1342316346135
97.1206120448511
97.1212981082489
97.1254728402756
97.1644745138687
97.1576550350742
97.1834078493609
97.1662246344931
97.2099329024902
97.2065806557409
97.2094635544491
97.2171213439965
97.2209870812882
97.2107155180987
97.2515910565823
97.2631587984956
97.2704605191281
97.2807509514159
97.3075766684452
97.2794689158627
97.3214017795005
97.3324459522956
97.3332129255749
97.3459801366899
97.3562391926833
97.3410950016558
97.3585558827786
97.345545571576
97.3983452371563
97.4459389661457
97.4826395642686
97.4478731545439
97.4648539823522
97.495183796609
97.4703144343762
97.4470164608799
97.5094408117914
97.5128881022671
97.5348999496954
97.5511751364696
97.5515931641397
97.5302884294171
97.5637023911557
97.5837609734728
97.5886830987557
97.5641909357882
97.5517527100893
97.5518316033223
97.5968864888455
97.6038872145709
97.6057824982313
97.559305442781
97.5761125276952
97.6179685534767
97.7033947840203
97.7260478320031
97.6695405696848
97.6587528899901
97.7386868058831
97.7348957636437
97.7380296568077
97.6916888219292
97.6722358865694
97.7190122649945
97.7158292316352
97.6515508484911
97.7157206922081
97.8050534816696
97.8947625272649
97.8875922392349
97.8800111752099
97.7500224498407
97.6861679926933
97.7426549804494
97.7697601164661
97.7978908878759
97.8493839912775
97.8439283051395
97.8588466813576
97.8389260440816
97.8838540624893
97.9233877131747
97.9486082538272
97.9128108548895
97.7866289283541
97.7663144386909
97.8298798823266
97.8298812644774
97.8635634127656
97.9103103624226
97.923701299203
97.8648613698067
97.8153196472231
97.745970238838
97.7743680541261
97.8614763473216
97.9245866396348
97.8980084844887
97.875028410323
97.9828365446111
98.0889817228763
98.0077135751384
97.9596444621293
97.934446079169
97.9622795224489
97.9504649188532
97.9556678263123
98.0422576259536
98.055927237835
98.0660305767527
98.1066652202901
98.0483100429367
97.9786906570894
97.9111525700242
98.0041354078515
98.0192108721824
98.0022376899168
98.0359671509632
98.0857800252073
98.0417303449339
98.0070904554754
98.0393823556807
98.0587569173612
98.150658599084
98.1829577010153
98.0898932741055
98.1192218368279
98.2108336407566
98.2109233314637
98.1401914632783
98.1328482525754
98.2491428659793
98.4274718262006
98.3342934888706
98.2800766230756
98.3686812071545
98.4409922792356
98.3691701021135
98.2783771266153
98.2851880922366
98.3843979791729
98.4327495848604
98.4670414650841
98.524698619145
98.4894861704854
98.3431231367348
98.3478100509661
98.4743684439917
98.4298318420823
98.2386140522007
98.3037265896996
98.5989726915566
98.6841844499281
98.5838459330368
98.5356084458247
98.5389898682635
98.6134591404477
98.6754689387432
98.8445061362863
98.8715730402893
98.6613028787955
98.5399448589939
98.6357900142625
98.6678431343234
98.5752112767987
98.3421216482739
98.1895865735497
98.2605408326722
98.3395642874483
98.3102008267147
98.2568132838732
98.2524327252665
98.1738613982878
98.0471411434173
97.9567750717909
97.9930598185559
98.0598299896648
97.9631303756591
97.9604884470441
98.0422731158118
97.9838976244095
97.9624010350422
98.0208813870637
97.9598043103778
97.8378977103764
97.6840619001361
97.6956856827803
97.7789107323543
97.7665948556178
97.6884072772242
97.6489600260021
97.5747167677387
97.5994463523755
97.6228275355873
97.586189005008
97.5568738665404
97.5619783515593
97.5546297584344
97.5557420971115
97.5916388779547
97.5694459311477
97.4721945170049
97.4147299571138
97.4057316035122
97.3990025425083
97.4209595273245
97.4673957465838
97.5035813666808
97.4946392225483
97.4559627455077
97.4649939144781
97.5190724168144
97.5689009376574
97.4846870564937
97.3992273046789
97.4084934854873
97.4315730929458
97.4760125498628
97.49384189127
97.4184652970254
97.406068786593
97.4206966387385
97.4493767675595
97.4488257912117
97.453844923759
97.4689250901322
97.522728055566
97.5249497418382
97.4855524128628
97.428296615254
97.4153300981587
97.4467205083446
97.4321215961133
97.4001911176134
97.4159969084921
97.4140135204585
97.4374834633763
97.433983393578
97.4212514122348
97.4434114108027
97.49249125207
97.5159839115039
97.5528354880716
97.5524148481916
97.5682424623342
97.5706578847189
97.5210878264993
97.5155809096396
97.5883859107034
97.6868125848908
97.6403804449217
97.6146393645238
97.703303555129
97.7357882164672
97.6436410312829
97.5738176460305
97.5895522322784
97.6046812184178
97.6561580303495
97.649243499007
97.6377995896791
97.62887039733
97.617564011029
97.6841988960472
97.6858889061752
97.6054742505409
97.6092862363914
97.6141035550924
97.5936908774806
97.5714418529663
97.6178574499487
97.6932579136375
97.7712782768369
97.8349228855498
97.8674905940582
97.7951484451618
97.7981164733888
97.8420513635273
97.9014099027055
97.9369092636335
97.9251526738105
97.9549469800714
98.0542605235751
97.9850457293521
97.982031066534
98.0315944559759
98.0803060340558
98.1105109537972
98.0799736590505
98.1167997036796
98.1821611769488
98.0949026020932
98.0687508170113
98.029511446493
98.052778682576
98.1717035773697
98.2826417797731
98.2296922250192
98.1037599292838
98.177969325534
98.1843492573971
98.135326908373
98.2804187619718
98.1635509759704
98.0105895328582
98.0616974340976
98.0735841016253
98.1640965029671
98.3427231408897
98.2430496410678
98.0981345427254
98.0261457981281
97.9965138245383
98.0891483045977
98.1608760881171
98.0644630064726
98.0094195563123
97.990772285326
98.0089091042505
98.1076794180978
98.0452740174273
97.9091389618346
97.8928577069857
97.877464854713
97.9022954938876
97.9340199300525
97.949319919327
97.9993614510663
97.854238746713
97.7677584907506
97.8810688609649
97.9919962376773
97.9963275417508
97.9229457718334
97.9052344829933
97.8565262043446
97.8598752061083
97.7822794760221
97.7765389913269
97.8702747975527
97.8733715926818
97.8407408731217
97.8987626553341
98.0056681588372
97.9960408420222
97.8576957692431
97.8666180462698
97.8294143652441
97.8736744490611
98.0453456367968
98.0939107307654
98.0704169837443
98.131848018888
98.1083738659742
98.1377160826706
98.0600698265489
97.9507742134234
97.9112907639016
97.9743299578555
98.0374865546748
97.972065491325
97.9367987289116
97.9724202312998
97.9332957483269
97.8584682267056
97.7323507619534
97.8428790538219
97.8984750771585
97.9071641533513
97.859594196472
97.6925839943592
97.6155624180993
97.8016641128129
97.8861287567185
97.8956588091377
97.8443596714027
97.7194441836253
97.6662857261359
97.6566024344518
97.5994715205309
97.5950210567791
97.5745520444162
97.6103940567118
97.643666822173
97.6791846313748
97.6569605241913
97.6609079231242
97.599809366469
97.7060406647638
97.7036075821683
97.4975965347009
97.4553335835225
97.4573416928418
97.5066532838734
97.5504371445255
97.5509093995859
97.532004436315
97.556121653234
97.6030585254775
97.5759629032005
97.4857631246021
97.469651632315
97.5213721572812
97.5384581530591
97.5285764090103
97.5478304143321
97.5149203280078
97.5103491572198
97.5134876803204
97.551660333591
97.5289600935149
97.3408003989133
97.2415104802716
97.3084567640988
97.5091132126857
97.6636335714998
97.3600126911473
97.2075199460635
97.3123799338559
97.4196097715506
97.4835830126238
97.5306923013565
97.5075735196897
97.5131876498616
97.4912033176126
97.3869756012095
97.3780026292615
97.3054661059341
97.3559555221987
97.4037603508026
97.4400426647426
97.4325776182072
97.4299347214811
97.4492789197717
97.4431462131423
97.3837606405217
97.4000879495933
97.4503851564021
97.4303394438069
97.4888672557145
97.4566782572358
97.3426122149193
97.3932364448928
97.437157762735
97.4118107482566
97.5035696397466
97.4471586296188
97.117168999198
97.2235619305321
97.3125723036219
97.3592360885483
97.3270106881154
97.3233301003151
97.3385220052298
97.3540297833643
97.3344260661159
97.3597922953053
97.3878257010767
97.3975852496974
97.3697424177862
97.3931166119683
97.3930898114312
97.378344509828
97.3733952715225
97.368920679819
97.3686988215958
97.4022529395782
97.5025358496189
97.3650624833433
97.1404610384699
97.0695479103758
97.0709864882405
97.1511824567364
97.2082286514387
97.3017956054669
97.3481579847824
97.3599910323777
97.3179128906851
97.3438803690874
97.3292939548215
97.3262647638395
97.3088745294422
97.3428899256922
97.3090562710961
97.336423612959
97.3332082589647
97.3545982836337
97.3374547229825
97.4107808257459
97.3810715337353
97.4092939124116
97.3148618934996
97.1932980192732
97.2032871514974
97.5795283149246
97.29454213137
96.8053757319007
96.9141272824101
97.0344397909499
97.2336279731558
97.3138333640305
97.366010045739
97.3599099491628
97.2146822994721
97.2223884289241
97.2839668699131
97.3148710627712
97.2916829255038
97.3075790961504
97.5278757127772
97.4496893550037
96.9178573104145
96.8754266507029
97.0526975858285
97.3813094024366
97.4124436216498
96.9397351048862
97.0220024686151
97.1813241297682
97.2090129815497
97.2532167934899
97.2706304223563
97.2950961340733
97.3162018759923
97.2656813271946
97.2401958152027
97.2752335929891
97.2776606309123
97.3461200362262
97.3459835793496
97.3867525050933
97.2603772453211
97.0458179643416
97.1708240810958
97.2251185713871
97.186199258116
97.2470684405388
97.2640255965137
97.2835075762396
97.3827088310387
97.3279571992343
97.0906066507588
97.1633375127193
97.0508997687999
96.9319153051922
97.148476110185
97.2754350145985
97.1817164277663
97.0608161693333
97.3825387043937
97.452269463453
96.9729883002933
96.8734196710157
96.7129360594786
96.9922049633979
97.1417594309275
97.2349742832782
97.2749982861689
97.4326639030883
97.1136468137581
97.0532528278905
97.1528428405732
97.3342527700808
97.2687836436381
96.9986515276371
96.9944642657868
97.0610741076433
97.1680161774274
97.287116916532
97.0360961369262
97.0858192590663
97.4280248940421
97.1555954144862
96.724844650325
96.4428784119159
96.7977642943649
97.3115095814123
96.90673558033
96.7737246125636
96.9755629485353
97.1310352984074
97.140646463175
97.3041071486103
97.3904161328088
96.8540863085825
96.7802011376332
96.9942182827813
97.0747565280118
97.3194064407332
97.0870799995877
96.8259604437886
96.9443371795681
97.0736103145235
97.1392479775443
97.3666733616814
96.8521889976811
96.5802322519745
96.7567666278229
96.5324403319714
96.5146239118422
96.5157568675782
96.6315206291396
96.7506004698863
96.7833995339124
96.410317219758
96.4121087515338
96.8557336817792
96.7821801479796
96.1374172000267
96.2945782144689
96.3161784942177
96.4916353274868
96.8445995430683
96.5878679078862
95.6057755394351
95.3635114765999
95.8036424644579
96.2243234702155
95.9165944155792
95.8230864374381
96.0079198772173
96.0839913791262
96.0660958282449
96.0713190972515
96.1272367974822
95.9455524797669
95.8557344217055
95.864018183975
95.9181343202655
96.1308768897119
96.1012544419734
95.4808231916586
94.9057626104563
95.3905994231447
95.2081770191254
94.9980480437596
95.2652490046755
95.5395775311761
95.7310953730097
95.6127323849718
95.4987503021714
95.6076856137371
95.801169065096
95.5220004278253
95.3339372753527
95.4337525201538
95.1141886773422
95.3259573299837
95.7593412076324
96.1170638812279
94.6605985576708
94.2943644945827
94.9636356553262
95.5613544591788
95.7615237092103
94.6197340893045
94.7807846567371
95.3663690245202
95.5285500151599
95.7061180180449
95.7550798352705
95.5929794475266
95.5445214076579
95.4162402836907
95.5223328226789
95.9588338287405
95.9637382763724
95.0855184825115
94.4478224430217
94.7722436565265
95.5455368846374
95.7205135891032
95.5271106763952
95.6921128878755
95.8229102101569
96.0941918349639
96.231200632844
95.3426703564859
95.3672401406275
95.802847678564
96.0141091821159
95.6904185433956
96.0249123215153
95.7274112571125
95.1659017460693
95.4903317625045
95.7986115520513
95.9518915635556
96.0158368771188
96.2513203707949
95.8440056692928
95.507754351097
95.6959967787242
95.8061430442663
95.9056469825162
95.9574797149094
95.9397210416136
95.9243605344949
96.1134821209149
95.9997357026033
95.7757909268376
94.5491646403299
94.2581441516092
95.2148942485269
95.7379484791307
96.0930674557288
95.7374348467797
95.5914237858014
95.2210455806328
94.8579774778388
95.4096960801628
95.6836135195144
95.7701130390945
95.7812192234738
95.8125568016257
95.7673078639861
95.9379397984103
95.7192935988484
95.7886252585018
95.7833980015649
94.6161398761441
94.9598288427448
95.5278173211537
95.749054260046
95.8151504899827
95.8384189574658
95.9225906194953
95.9659824180892
95.5552622066347
95.6321897369669
95.7683165493948
96.0608627896971
95.8845672510772
95.3365788857605
95.5399300001364
95.7596760000716
95.9030165095107
95.9245907883259
96.1896560709347
96.2754928663295
95.3012918568108
95.3793760853378
95.8054252272611
96.0094471887475
96.0952409749596
96.1033190900184
96.1660231541843
96.1196477884537
95.9807576343352
96.0962139947604
96.0619415177329
96.0872479406396
96.1704209304606
96.2531179004317
96.2148129892458
96.2061197196212
96.2345623571453
96.2217781306783
96.2767228735731
96.2998303105626
96.3407548996856
96.335180746977
96.3290464380132
96.3267766622226
96.2806953064211
96.3317404802661
96.3540642237762
96.3630299404331
96.3902240383742
96.3794501321872
96.3947290338759
96.4176372039209
96.4435671148616
96.4585407405328
96.4730467885018
96.4667683674409
96.4756126097262
96.4492842202308
96.4597500093812
96.4659365901478
96.4940507795722
96.5275794483145
96.8113823812233
96.3082080641622
95.5768969970188
96.0354690060492
96.3013410717631
96.4603507920947
96.5313951033553
96.8308801780069
96.4540964322882
95.7879062240518
96.0475267155897
96.3429492131861
96.5867447914686
96.494067674341
96.1857364543425
96.3438209554603
96.4369647931574
96.8024117843356
96.8106783176073
96.0308388186888
95.6685367728258
94.7015856233416
95.1853419294535
96.2252188203927
96.6224665031858
95.8626217767004
96.0207956354179
96.3256004537209
96.5768190691807
96.3960677379175
95.9911944566406
96.2369104754892
96.3916898154715
96.6611172174796
96.5935887244391
96.0153762713913
96.1513651019439
96.3287355066474
95.9142531893945
96.1073166532782
96.0943193359493
95.1092573879411
95.0987977850469
95.9954341787597
96.402447371403
96.588225264712
96.811915427603
96.14707625877
95.9069954253178
96.1279537138816
96.2771468965443
96.6065959923527
96.6261175233618
96.4360738841905
96.3637742231555
96.6105082161164
96.0371030507544
96.2194443248227
96.6528422302242
96.5042111750617
96.2358698394823
95.5690794167871
95.7660369360385
96.5369615045596
96.7287780073719
95.9463537033964
96.0218178443826
96.145282294865
96.4733344620352
96.8321721413119
96.4157998920594
96.4897488025494
96.7339124888812
96.527863632862
96.5037338355947
96.2756638013769
95.8333923477814
95.2242403591638
95.6348481569893
96.4343104086846
96.7685677923989
96.7905899786153
96.7517621814369
97.0017569536962
96.8313826118508
96.3690013079895
96.8726796854962
96.4737343713018
96.175147459554
96.5832052691571
96.786721472706
96.9273761933641
97.0742495402497
96.8407886200358
96.3038798655966
96.2826184615245
96.6266668892888
96.2800613920901
96.3690366694099
96.5924215060298
96.7029470690201
96.6980257370261
96.7380055571517
96.5257751706454
96.4065570579262
96.5073200882955
96.5383751877877
96.6551908530221
96.6576763942948
96.0513120504457
96.3917024654474
96.4519198634488
96.2054004632202
95.8089070118585
95.5203267290482
96.0647827449646
96.2652518015935
96.3161995349507
96.2821087626439
96.374858044791
96.4492455985814
95.7607409252644
95.7210510485945
95.9402171492107
95.9629338936776
95.9537743704871
96.0052988842075
95.802101532816
95.6062158907651
95.4336304242846
94.6256001156748
94.7930015976328
94.9925523818872
95.3851549228971
95.5082934483709
95.362496341128
95.3793777510612
95.4642518154482
95.5665777330626
95.2070500556299
95.1212400912502
95.3242712789102
95.3506103703876
95.4194215351907
95.4292397441054
95.4204449109598
95.3959488038278
95.3953963450082
95.3744949026427
95.3955004443248
95.617640395673
94.9847520154888
94.4647768051195
94.851178672987
94.940465340777
94.9189712967951
94.8133324215356
94.8640501226929
94.6261115930665
94.3775322887409
94.4810093652335
94.5083692041908
94.548397451469
94.6002887859713
94.6081224743778
94.2595845000169
94.3215205641697
94.5343345551219
94.7421570340215
94.8785582512752
94.1073457793829
94.2533333987724
94.4861886711761
94.74095600186
94.9235342391586
95.0741051153193
95.1884606144936
95.2460811603266
95.2103623449912
95.23729335361
95.271603589168
95.3022615174515
95.367287629318
95.3927779062379
95.4812431946575
95.2176735600418
95.1114425782595
95.3490610647652
95.422506682837
95.4729925039241
95.6208069910084
95.5202916571804
95.1305546292653
95.2938850145224
95.4450741911317
95.4698732867214
95.2944845622015
95.1692353555813
95.3902098459636
95.5991817129656
95.6477293705314
95.6732483902605
95.6993111390984
95.7880604683333
95.3843427513309
95.2809912046369
95.434792259211
95.513547372535
95.5012252201841
95.4716039022787
95.3928751896584
95.3583877865919
95.2547786178435
95.1477885629351
95.0016714247039
94.8945551531109
94.8837550882304
94.7346449664815
94.5087425858327
94.256752799753
94.1742315620524
94.21085049795
94.1637732225536
94.1685152377049
94.0097232787942
93.9651900387363
94.0514920469578
94.0987700570616
94.0924390389482
94.197063863042
93.8285293667743
93.6539149512327
93.7863234628401
93.686554981285
93.8615572078557
93.9256991808171
93.9400601387161
93.9499314010998
93.9781994556574
93.9225281976264
93.9446939250898
94.009086977613
94.0677726000708
94.1443431837177
94.2181355080423
94.2453051004184
94.275459666831
94.3197729001781
94.326522130758
94.3144624947343
94.2607348257318
94.2111478962918
94.1312792879199
94.0764876125086
93.9322421448124
93.5984651029262
93.42000485949
93.3988277736413
93.4651951201876
93.3268794022409
93.3421453336296
93.3578395242264
93.3456875657963
93.344554552144
93.3795759598078
93.4328344575313
93.4868759985099
93.5535127136322
93.6261197030201
93.679615780758
93.7062121305417
93.714390087678
93.7024635973502
93.6583809149969
93.6142539843181
93.5463532613146
93.4388415884419
93.290779495181
93.1071806486789
93.0075165259614
92.8370183055631
92.7598973427863
92.6852136226825
92.6096802794801
92.5662481323883
92.570835697396
92.6697446087368
92.7617302407086
92.8519016493955
92.9399387021824
93.0512702871948
93.1791346726915
93.2970581426424
93.4197254473178
93.5385893929334
93.6577517488305
93.7679958103632
93.8675218496927
93.972125638622
94.0736963252213
94.1617649728761
94.2400229489278
94.3011661844391
94.3657686281793
94.4046109679201
94.4351234486791
94.444796435029
94.4499673579813
94.4521597527139
94.4708911202613
94.4816892610289
94.4616534768028
94.4479069752625
94.4435345595063
94.4287046704854
94.39773157474
94.3427105879734
94.2815025607638
94.2165049192507
94.1659599890525
94.1458268795703
94.1714852326636
94.1985566063399
94.2298924260161
94.2496893780906
94.2754671331686
94.2962067449299
94.3361336155801
94.3572324541336
94.3911804435773
94.453930594488
94.5029651082579
94.549794804974
94.5856858528747
94.6198768341988
94.6527046880829
94.6885493995982
94.7111548278433
94.7349111492381
94.7669656656657
94.7799391886171
94.7712184618224
94.8091695795334
94.8460452623335
94.8644587296912
94.8854076259305
94.9102306641336
94.9256555480435
94.9295882600754
94.9240691905162
94.910463085658
94.895411895101
94.8896531522705
94.8704859110852
94.850155506828
94.8358634312491
94.8317230806937
94.8435812896151
94.8568686786312
94.8811615682058
94.9026227799724
94.926336276444
94.9515280279969
94.9680582865868
94.960036490819
94.9482989239236
94.9441164507721
94.9276397165421
94.909936330565
94.9132064818957
94.9377007606366
94.9706094530783
95.0057397814891
95.0450378121328
95.089934907424
95.1441748268059
95.1978207271654
95.242999386035
95.2761930488245
95.3217331147124
95.3865193192253
95.4457803558148
95.4985137108393
95.5533589017386
95.5978765924419
95.6297991293496
95.6623659480677
95.7143297244929
95.7597861350418
95.7757084103832
95.7895603125436
95.8092545009288
95.804859390007
95.766304202571
95.6977355956974
95.6031241754692
95.4923143241527
95.375733963459
95.2596420138004
95.160241524687
95.096406213221
95.0690032430728
95.0533539792896
95.0449013049739
95.053118223556
95.0793412816672
95.1184975316288
95.1562240994715
95.1928155563081
95.2447415710671
95.3086261021106
95.3736972670911
95.4409775562574
95.5131021596456
95.5844008481869
95.6524476306897
95.7190696834652
95.7836740897998
95.83380265856
95.8690446792414
95.8943146031406
95.9204366121397
95.9301777977713
95.9271847466005
95.9136865743553
95.8976860350632
95.8788601790073
95.8496661776389
95.8047102978162
95.7484161815072
95.6761896222568
95.5967302723092
95.5143185769381
95.3999916155448
95.263139324008
95.1065882318271
94.9048578869901
94.671322306089
94.3979213275736
94.0808724955948
93.7271927776387
93.348120909368
92.9544717854497
92.5594091716705
92.178141653515
91.8438311975346
91.5746228316911
91.3798547622423
91.2666936728314
91.2344225714689
91.2680411153737
91.3503881853623
91.4604362327169
91.5854626390482
91.7181015533536
91.8447350719999
91.968358930633
92.1133103077314
92.2682606018345
92.4146336035734
92.523211274462
92.6244302960976
92.7546435718201
92.8951468021325
93.0376451960346
93.2056364096492
93.3954460846084
93.582086069743
93.7618228976221
93.9332959990165
94.072782523585
94.1746136189859
94.2482977033939
94.289498831621
94.279566322795
94.2314841795812
94.1526439160701
94.0448643799137
93.9312717039992
93.8220572546188
93.7079525712999
93.5802668828127
93.4190393449882
93.2208070074065
92.9890453344237
92.7343024951791
92.4744802417939
92.2260250677215
92.0087481443985
91.8217200684287
91.6431177756992
91.4787673741334
91.3034035990505
91.0712144200015
90.7933633347094
90.4713463958329
90.0836661382707
89.643521997913
89.1806146982439
88.7463233323279
88.3926869061615
88.1463927238731
87.995734350765
87.9354619175335
87.9421128145627
87.9729780127345
88.0043682209285
88.0198401231774
88.0227381158043
88.0289417058027
88.0512136822429
88.1011515380475
88.1840093201271
88.3008285449418
88.44775177806
88.6153878930601
88.7781749621474
88.9415987301069
89.1107705757518
89.2843138640504
89.4459110917221
89.5846679838344
89.6927987041053
89.7870295006294
89.8583712583717
89.9061853095077
89.9473044931646
89.9776083647802
90.0118432605708
90.0538412738333
90.0772810098556
90.067283747517
90.0348232727246
89.9814822536031
89.880653663968
89.7197779606639
89.5203407907461
89.3044738657559
89.0777886383774
88.8674810592342
88.689043242955
88.5363165201204
88.4000475764485
88.2659318247963
88.108699975386
87.9168178417286
87.6966050697156
87.4349601556744
87.1071948845169
86.7334128338682
86.3224336431661
85.8489912007955
85.3189829960093
84.7401876798475
84.1310977849228
83.5393716499218
83.0000798016948
82.5342752125628
82.1553501037559
81.8735816022244
81.6724587407279
81.5261437889811
81.4040353795606
81.3162851389633
81.2992864399336
81.3547313309479
81.4688230487422
81.6381243862184
81.8648319929652
82.1201842192887
82.3779835662036
82.6432094012952
82.9119261878492
83.1578312350642
83.3457644720811
83.4533555254658
83.4759018381615
83.4052673307463
83.2325774875959
82.9697894019366
82.6352910619278
82.2493056692128
81.8277411880075
81.4209171561614
81.0571002527622
80.7572535991625
80.5322290640414
80.3727954011371
80.2701719643786
80.2152241747877
80.2128622888397
80.2537451407345
80.311137656324
80.3814530393431
80.4714788590395
80.5750118386692
80.6849051113861
80.793005839652
80.8937294285329
80.9953608490781
81.0878453206184
81.1687058845259
81.2354383564226
81.2903218900076
81.311009088319
81.3005969121538
81.2919578787061
81.3099650201445
81.3526596689548
81.4042676685935
81.4483672262125
81.4781266151732
81.4963040716926
81.5112342302135
81.5189585319768
81.5131346923745
81.4954478910628
81.4536744723087
81.3743504929621
81.2764954500587
81.1844280698279
81.1064048794752
81.037638924334
80.9939635209284
80.990871022589
81.0142355519853
81.062386499892
81.1424217260321
81.2379466688755
81.3294676671422
81.42140717157
81.5040099085752
81.5614174183176
81.5869213065176
81.5611359806826
81.4805300143435
81.3740251157151
81.2572195628759
81.1460606383622
81.0984990887276
81.1333957659188
81.2363886355556
81.3917924672806
81.5970874678021
81.8327041632206
82.0829668212335
82.3363666101753
82.5771647928348
82.8081978378312
83.0207375359748
83.2279294435923
83.4275847524404
83.6028426904181
83.7600276119251
83.9215468148298
84.0764125417384
84.2200098505415
84.3788612969792
84.5279355567811
84.6588148685728
84.7935460547071
84.9284783625877
85.0638953925884
85.2225575868565
85.3699121510802
85.5093478233083
85.67100188613
85.8313465327907
85.9611300950716
86.0968937323346
86.2441070987054
86.3709817600619
86.5009777301176
86.6300478650045
86.7554712516551
86.8848845148794
86.9945447284113
87.1077988411237
87.2369759611116
87.3468116844302
87.4436107037904
87.5550718979837
87.6500261733318
87.7437040536799
87.8513904156024
87.9480088006355
88.0312233166957
88.1229101496412
88.2171345678383
88.2845873683741
88.3512228380676
88.4286520161697
88.4999748548922
88.5612975596857
88.6101078633744
88.6719975579355
88.7472460469026
88.8103665029113
88.8711438948418
88.9468149604883
89.0185379206014
89.0745995125298
89.127014283857
89.187825761839
89.2598567723876
89.3310292039109
89.3952903465292
89.4518874039365
89.4860236639339
89.5234947353245
89.5757575955709
89.6241734932842
89.6558634881211
89.6801696109417
89.6863457625987
89.6914041109094
89.7093451747721
89.7141416052835
89.709285852196
89.7036153244136
89.7061552120819
89.6947066465646
89.6734044804366
89.6689333712507
89.6599830036455
89.6416497750583
89.6221288993952
89.6038147693669
89.5705807014028
89.5274129985076
89.503078379178
89.4956305551823
89.4949260987778
89.4925813198398
89.5064041242562
89.5236407381739
89.5552165860025
89.6038374186066
89.6282088812723
89.6951016740802
89.7929015436456
89.8816079998538
89.9545920046669
90.0222176366747
90.1014556000912
90.1985058063694
90.2561886623747
90.310823760104
90.384730539771
90.4560704827098
90.5195720725826
90.5997177517779
90.6621390087772
90.6993298191546
90.7744813733099
90.8571151737824
90.8978105911413
90.9320534721161
91.0053187761286
91.0626295962509
91.1113079007346
91.1658219410695
91.1847969465063
91.2203581001365
91.2757089319741
91.3184414451501
91.3513457270123
91.4017707654497
91.4563505978649
91.5077605139788
91.546861800975
91.584289300924
91.5981189169685
91.5877504793575
91.6213492279868
91.6732688466212
91.7258121813948
91.7663947491642
91.7811830043743
91.7865397873111
91.8201873554591
91.8697435920499
91.89156892237
91.8972920717344
91.9275945021204
91.9644448195134
91.9756337212072
91.9886668974887
92.0094741807416
92.0435124550088
92.0553497181915
92.0711582523566
92.0970388900721
92.1097225050509
92.1340518760166
92.1609921450284
92.1786668681797
92.1890104925024
92.1986683152739
92.20272732237
92.1863714620688
92.1927642571927
92.2255430195135
92.2607478507774
92.2974406506302
92.3227255415231
92.3042477028552
92.3067399955355
92.3222602280824
92.2952702070879
92.2775784149377
92.3000418549945
92.3254081385622
92.3625716981735
92.3869757750824
92.3733350433778
92.3856335928073
92.4215387698145
92.4324336835464
92.3992451636555
92.3829053299201
92.3833741106466
92.3558558641662
92.3539816985262
92.4174971142491
92.4515161823296
92.4231836987845
92.4221845175351
92.4486054367933
92.4504592768369
92.4485422051192
92.4571849674607
92.4504095387634
92.4388901263372
92.4459670871566
92.4257687976666
92.4031936379441
92.4205720300963
92.4590931878485
92.4838143733371
92.4933167909482
92.5186439063446
92.4904043823907
92.4507817303657
92.4730109986493
92.5022126571682
92.4878340512465
92.4877493977166
92.4554758083361
92.4407646972668
92.4587285345633
92.4209852233711
92.3852645425675
92.3903493706555
92.3949813857603
92.4380352624258
92.447806363613
92.3607058970262
92.3349234481983
92.3609165857571
92.3732180536871
92.3902099011756
92.3827648587285
92.3555470886997
92.3649561334911
92.3840658352741
92.4070910330894
92.4154968870409
92.3763361593152
92.3062866261968
92.3268596052036
92.3703032655813
92.3227429221408
92.2837245881664
92.3031604294719
92.2973551926408
92.2804708956989
92.2808081197984
92.292651609727
92.2940704087737
92.2508806832102
92.2058085970145
92.2222612494967
92.2124384091331
92.1375137302481
92.0991274909968
92.1400915500426
92.1188395733722
92.0283493047574
91.9883680273123
92.0211984243673
92.0991097171766
92.1363087287879
92.0772240188422
92.0206320106504
91.9840900214086
91.9372692721374
91.9074625745383
91.8879211932879
91.8327216311712
91.7881074441643
91.7846004203692
91.8474410934338
91.8349075511546
91.7649294805919
91.7286935311952
91.6748659416027
91.6085219531107
91.5518973634286
91.5463133890433
91.4805577246805
91.435352649359
91.3804341661793
91.2259882150382
91.1809051242563
91.1527273630391
91.0057179520872
90.8178142762402
90.648639805447
90.5934332616858
90.4985381644889
90.3143899309626
90.1913864791488
90.0408511431088
89.8249566289912
89.7047613263386
89.6790499556265
89.5880524866337
89.4391585442796
89.2051089742042
88.9900277803201
88.8598021120366
88.8548918333869
88.8647418889711
88.7538850399181
88.5736364127685
88.4093446794782
88.3548536090525
88.3147261983695
88.3385679750917
88.4084632397761
88.3614568675924
88.3367393891535
88.3763430565397
88.2676143897517
88.1060702200966
88.0917504164257
88.1338985583152
88.2229739958307
88.3569687210319
88.3441753835363
88.2152981827357
88.2070284655137
88.1325618795541
88.0969958235049
88.1546638013112
88.1031727733815
88.1216087894639
88.1749994566751
88.2277718967609
88.1759899352795
88.0382455783062
88.0767614486843
88.0029068603825
87.8088538863376
87.6206127487893
87.4574877729124
87.3438820845632
87.1263314271294
87.0960306512693
87.0435750124612
86.6164833528721
86.2829249527801
86.0322880491626
85.9160347968667
86.0231456950656
86.1319212624222
85.8398344725834
85.2448063790177
85.2611709650612
85.3522724086429
85.2410570284572
85.0284753669877
85.002504810399
84.6727377204767
84.669999286237
85.0360728304706
85.0753872080239
84.9138459449897
84.8513707418548
84.9257807221268
85.1287927053811
85.245617150869
85.1397865991983
84.8704767296082
84.9026109206877
85.454754506926
