3596
4000.36533379555
650.420452594757
1
128
2
98.8205698069658
98.8590999697859
98.8608970895436
98.8578512859066
98.8232011794664
98.8155596922408
98.824296434389
98.8604771086058
98.8477954226454
98.8113035399527
98.7797625163563
98.7925017818254
98.7982945460811
98.8050473779506
98.8234050770703
98.8169427247035
98.7764907739677
98.7744994762194
98.7856331963804
98.8057002885592
98.8140934005589
98.8506033572657
98.8360293226589
98.8036541733857
98.7861781585564
98.8363606112574
98.8151007999184
98.8145024725338
98.8465542894036
98.8751807658323
98.8490951226451
98.8328250574682
98.8496943589015
98.8376193204386
98.8000684415923
98.824498177993
98.8905659782079
98.8995111766852
98.8470517663135
98.8518307192045
98.8186507069347
98.8134061078714
98.7975270436308
98.7814393190205
98.7818848748208
98.7990000340793
98.7984109355073
98.8175174069236
98.8378869211493
98.9063775964571
98.887604289053
98.8435047004046
98.7904115946073
98.7242309390312
98.6911590989801
98.7212838764175
98.8478155133335
99.004455546738
98.8440927827705
98.6920403098795
98.6967824830091
98.7564986779735
98.7611840690875
98.7387477027884
98.7805450398339
98.8217310369125
98.8420940533608
98.8793978262135
98.9663440338167
98.8510689682072
98.6751374860679
98.719794085829
98.7316357480611
98.6722068222861
98.682307996985
98.8322773648015
98.9988626688438
98.9494824799347
98.7646220497412
98.7015079064085
98.74924872747
98.9074453185226
98.8520163519812
98.7123288505754
98.853400049566
98.8858549507612
98.7324677024048
98.6985836693406
98.7494532027119
98.7912264448076
98.7903299352328
98.8134430681028
98.865201314908
98.8857731588119
98.8262784569232
98.8015028141854
98.9164961307513
98.9811801222424
98.9976185048265
98.8247882897034
98.6911113803762
98.8821234825195
98.4916597973501
98.5199118283793
98.7275150652977
98.5093616305396
98.4261867683143
98.517863008647
98.6535030821418
98.7781941517824
98.7660846243414
98.8052703039168
99.0764043452306
98.8929324898872
98.5172960219076
98.5780198951576
98.659283097529
98.8396432359552
99.1830761112942
99.0046248712159
98.5210397237501
98.4934130588506
98.5529363062418
98.8346363726376
99.0565370151919
98.759520607138
98.4460080015693
98.4920856756906
98.5860229347353
98.7122038760135
98.9815148149746
99.0635982165962
98.6578546348603
98.546104230071
98.7390156981899
99.1257346097749
99.0054782582456
98.4397993620887
98.2664160371475
98.5029806713773
98.8991859203271
98.9491133320338
98.5804151377776
98.5899253912951
98.7562069189686
98.6254045634423
98.4995287217327
98.5700156591288
98.7509615651423
98.9352107197373
98.7639384625931
98.8804189865286
99.410665332393
99.2979887509542
98.8388377422143
98.519325256738
98.0680526208086
98.3122327088816
98.4533552753987
98.5652352027244
98.6559596357955
98.753078070501
98.827035648688
99.0866640322534
98.9950574558584
98.6797185708239
98.8200988905224
98.9700545579749
98.7450798105829
98.8213460980682
98.9579785137278
98.4886164004481
98.5402018895799
98.8016994475367
98.4765263980644
98.4574318516617
98.8828812008999
98.9503032384621
98.6324002830138
98.6414099233672
98.7243465669361
98.9119496025688
98.9928016460609
98.8270500732279
98.7530562814695
98.7893223044281
98.8910686902606
99.2028963466559
99.2041372797054
98.7183007526945
98.3791583021236
98.4727278628981
98.7205133982996
99.1377249915263
98.8903467945919
98.4993521720184
98.5080526086936
98.6410803572997
98.7685148798458
98.8656714356821
98.8907502256059
98.8774348005269
99.0978337024416
99.3921965876407
98.9792427127041
98.6284440477218
98.6513778674743
98.878757149839
99.1608053000217
99.2890087242828
98.7228537213162
98.3353278448014
98.5134945967056
98.7742510408134
99.0115245031347
98.8851397984998
98.5892192576717
98.6451542324846
98.7129560461787
98.788881798038
98.8571125552116
98.8969997243919
98.9145926881236
98.9309550030054
98.9213182501996
98.9422278385254
98.9965588062388
99.0657687420629
98.9608673223518
98.8837817258385
98.8677099201011
98.9199862798673
99.1462614943831
99.1370188493109
98.7927053238008
98.7495988489747
98.8141738829305
98.9137607902917
98.941011868637
98.9334952124785
98.9000470375243
98.9414879370558
99.110942311046
99.2483489450253
98.9177607424434
98.7331243696914
98.8147735122136
99.0726461733897
98.9251398987111
98.7258766671183
98.7046244082057
98.7405999022735
98.8273215572508
99.1019355405349
99.1611847179115
98.8385921783982
98.7914808586621
98.9504474332757
98.7952756881215
98.7104552298042
98.8008216268547
99.1164861110405
99.3660210702442
98.8547674663435
98.8049531594436
99.0857835555533
98.5387858137773
98.3605437895046
98.4502131886243
98.9171292893133
99.481746274067
98.9450616124226
98.1722139340101
98.357298063107
98.5756363064628
98.5744107947324
98.7106567804767
98.8516115607925
99.0016153976306
99.1361876153038
99.0811718230738
98.674299367021
98.2595464787683
98.8091935709146
98.7040786052376
98.3705836648585
98.5120680869079
98.6552525675179
98.8171718380761
98.9928674421381
98.9556110412399
98.8457821725616
98.6647095556177
98.7730407134844
99.0046197393765
98.8045476215497
98.6989980790591
98.8707659832917
98.8953356230621
98.7951545097743
98.8190954322082
98.9082572458893
98.9426513030269
98.8523878100356
99.1374106082037
99.4226768111173
98.9285935513491
98.7405895983739
98.846062002356
98.6012258293383
98.636161098338
98.8264491142636
98.8378166759986
98.839708350305
98.9301679462989
99.1508508677191
99.3014223660601
98.9986629441062
98.7945960786758
98.8370016415771
98.861693087437
99.0170761322361
99.0804166018012
99.0205215884144
98.9909525232257
98.9996124462807
99.0507539897676
99.2746883747935
99.1675015171356
98.9461463969508
99.2258973068707
99.0451458059874
98.5268267388069
98.5823951924766
98.7313697269176
98.8966136613957
98.8941797236871
98.8946681604357
98.8928112385873
99.0327245883896
99.1130579913022
98.9783906084994
98.9509003712793
99.2086837491091
99.4405089127596
99.2424071001194
98.5100224310448
98.251395046386
98.5866392269372
99.2417475170364
99.1968311674777
98.9247254733425
98.7653358987055
98.3924890988327
98.5175446273543
98.7140171297042
98.85673546749
98.9269978876418
98.9482535526196
98.9583795418228
98.9722252431054
98.992777952171
98.9858429056501
98.9817876195011
99.1888438833274
99.344058229347
98.9304397790393
98.7284157444654
98.8065219277198
98.9307420740051
99.2228736394547
99.2109166635133
99.0319316738159
98.8765434817008
98.7373497124236
98.7074482344957
98.2260386881018
98.2910501479147
98.4821904292204
98.7307487986979
98.8321868793031
98.8271141727889
98.840804914815
98.8525635042893
98.8635083861069
98.910671833544
98.8690324356272
98.8910330369594
98.9457703691023
99.0757593276416
98.9059575763983
98.7985358285761
98.8661155900685
99.1719771210554
99.3513534826079
99.0429235567343
98.4876734939951
98.3739445742583
98.4379215664842
98.504849544058
98.5974787746208
98.6421695282998
98.7888154812717
98.9590339414313
99.0535461225434
98.8258678544888
98.6469485950497
98.5444260509257
98.375990819254
98.6693831005476
98.7431142363423
98.732342701055
98.7590997532311
98.5226925016499
98.4677742826625
98.7756051670241
98.7619202247934
98.6325167205444
98.6916419971394
98.5417978162529
98.5429594123491
98.5702216236039
98.63537053248
98.6892537454331
98.75705820458
98.7819390803241
98.6522096329211
98.6766272477088
98.6552941180262
98.6599897230127
98.7349343084319
98.6060061381634
98.5129432705369
98.6225987399682
98.4789256606822
98.5503880862413
98.6506553499237
98.8279880239904
98.8351396328416
98.7143054821538
98.5865845917967
98.2397261605494
98.2759501965258
98.4318575090799
98.4690531913726
98.5457561922733
98.588316697164
98.5684523313422
98.5212386569325
98.5928059858243
98.6338601246672
98.6035236900037
98.582523513845
98.5492586963145
98.485835602932
98.5238346332004
98.5431997098275
98.5481607358927
98.5195272758171
98.7132178908632
98.7927253904679
98.6376073775723
98.4588504130415
98.0873976416341
98.0509890981992
98.1580044907412
98.18532560983
98.2784105064419
98.3953882660662
98.3402732627764
98.2541433093649
98.3548171209128
98.4073667677373
98.3993771655174
98.3826719444399
98.39067231125
98.4321958683603
98.4370708706702
98.2896575137706
98.2850407435092
98.3407906380293
98.3904899653869
98.4243529075359
98.2894145797238
98.1939906669636
98.2236259922825
98.1541164867705
98.1992558903115
98.2521713857161
98.271552633681
98.1533130306327
98.1440054545097
98.2275074658403
98.3346716383718
98.3150080790768
98.156480567583
98.0688975444922
98.0973821880989
98.1194096934196
98.2094746905463
98.193755116378
98.1952021037718
98.1911943663072
98.0989372981488
98.0365755397157
97.9906772857941
97.9611833625001
98.0229857780427
98.0236264563258
97.9337117362831
97.8931380752356
97.9376709369471
97.9761365400554
98.0133277207386
98.0318316832668
98.0605442339204
98.0386226122754
98.040829074195
98.0199618902514
97.9717188776627
97.9101042799096
97.933605952085
97.9881497295636
97.9470032114988
97.7929822386605
97.8084557856805
97.7947116313978
97.8394250182046
97.9199431325103
97.9180263194199
97.8173963250239
97.741759667913
97.7356037751159
97.7585289303826
97.7206597370119
97.7563928408775
97.7784897226879
97.7087143071846
97.6271480622671
97.6569930791945
97.6748346760492
97.6617431740166
97.6199050385018
97.6142961062849
97.548809432237
97.5628635624513
97.5996449790231
97.566248057287
97.4985051052539
97.456730786936
97.41192647777
97.4196699720963
97.4751580177821
97.4705955182136
97.3781767148522
97.3072881143136
97.2765286458258
97.287414623557
97.2753622297395
97.2588530152374
97.2266029905364
97.1714796547378
97.161039579444
97.2134185123082
97.2250719983608
97.2115919013056
97.14881974709
97.192295627366
97.2307149556709
97.1497967488112
97.0867620676515
97.1277925155567
97.0855942250048
97.0479682861027
97.0284294084474
97.0431768657676
97.0353378900528
97.0307471471449
97.0225219539842
96.9952843903872
96.9566880214337
97.0051534652073
96.9922145434792
96.951944549711
96.8851768068507
96.8352627217504
96.8308792290379
96.8522117356787
96.8276438033018
96.8633052525173
96.8538560099267
96.7345657848431
96.665271921204
96.6439662305891
96.6476340115898
96.6542914241875
96.6052303427233
96.6007972696242
96.5987705396345
96.5873455222156
96.5524065898334
96.5706527170908
96.5260380922781
96.5299500414494
96.5501353510458
96.5353688536145
96.4970317073289
96.4618101465241
96.4349973051015
96.4310002920342
96.3748711895768
96.3282602431423
96.3088484222411
96.3105982002865
96.3217716129304
96.3640182428989
96.3623690016256
96.3368954051151
96.2791912555652
96.1944442820133
96.0956974057814
96.1229285539499
96.1426751608526
96.1190352762448
96.0660415341959
96.0584813756472
96.0396337433335
95.9868599392291
95.9135754166409
95.9124694393196
95.8988713926982
95.9032835782709
95.9013355593874
95.8397985214766
95.7548109397562
95.7614681937647
95.7707387661255
95.7665368671253
95.7347727290196
95.7302887514842
95.7074620482474
95.6791484553866
95.6514297469898
95.6558980401327
95.5881526552726
95.5783125236333
95.6310557018507
95.628669908065
95.5952496309861
95.5772587046851
95.5271042888873
95.4838107249517
95.4584025856581
95.4941431769942
95.4943082082592
95.4816701982309
95.5025142943938
95.5128299890998
95.4366242849105
95.4063088665391
95.3767727022372
95.3496819295486
95.342503682879
95.377424617558
95.3629553465726
95.3051261312388
95.2568514060053
95.2391141672413
95.209749102984
95.2018386042761
95.1724385764915
95.1610663875425
95.1460479415467
95.1526246311344
95.1154140551306
95.0852319976959
95.0731948643332
95.0802970411081
95.0324306243664
94.9771474888987
94.9490996205836
94.9560177916383
94.924094033547
94.8730596097209
94.8427555717586
94.8413062702405
94.7961828181831
94.7428888657228
94.6984777637202
94.6658806471854
94.6004643180025
94.5634232848462
94.5484770361394
94.5103135261164
94.4528968555158
94.4245385804073
94.3845334613418
94.373860336234
94.3294301269471
94.2688162512714
94.2477474957875
94.2496926267041
94.2197891706435
94.1563855568507
94.0437374546653
93.9857330251121
93.9709148056658
93.9485757232154
93.9082631305136
93.8996010422376
93.8672719472034
93.8312936136552
93.7977838858678
93.7994142148561
93.7891615649101
93.7825215312105
93.7891738815259
93.808863229458
93.7934931766541
93.7904637309566
93.8123846717709
93.8350879008529
93.8038871299085
93.8118833637757
93.8468336669448
93.8616648246595
93.8519764944836
93.864733697111
93.8415259462876
93.8413721020237
93.8874934705461
93.9281953796268
93.9047725340085
93.9232727266419
93.9203404896943
93.896360266264
93.9143348556563
93.9521044509547
93.9534872675266
93.9562765524871
93.9420758969345
93.9275004479289
93.904114876051
93.9090772126327
93.899591741773
93.8829839540921
93.8553031969107
93.8641335839769
93.8822513172671
93.8894669532532
93.8301164609683
93.774907395399
93.7726568703429
93.7833561793776
93.7834019930322
93.8073439055898
93.7838607890118
93.7760044131903
93.805466634251
93.8281455580187
93.8049777685534
93.7957827078125
93.7701155247542
93.7519206636743
93.7584424339605
93.7767754826253
93.7438736075935
93.7171246404148
93.724480165323
93.7547924555768
93.7365652589613
93.7285715641601
93.7257196859035
93.7573507668996
93.7643490855981
93.7464485200259
93.715203824949
93.6873922934296
93.6822331724464
93.7404452567959
93.764487979481
93.7226022867329
93.6700130597273
93.6518776262103
93.6435931272684
93.678505995119
93.7002750393722
93.7419609647093
93.7853136043844
93.8138875756962
93.7906412063621
93.7600911282198
93.7881599299644
93.8419887228771
93.8491015026944
93.838226148464
93.8637460837205
93.9005188997423
93.8918089858236
93.9072323002633
93.928305204166
93.9676483285299
94.0001827961295
94.0206624023701
94.0319060313969
94.0549248289369
94.0675533339333
94.099160609303
94.1091507225646
94.1492988958767
94.1723621182688
94.1886505212106
94.1992396821219
94.2332497277923
94.2801022159497
94.3049516664121
94.3002782838587
94.2961777621002
94.2801958699972
94.3083875428547
94.3483679936654
94.3676313865153
94.3879907631945
94.4293714669315
94.4420987388333
94.4359432595437
94.4408772494243
94.4763052904805
94.4921179060031
94.5037369651409
94.5260512570132
94.5398015766133
94.5616528754853
94.6027424440803
94.6271756307637
94.6723169814604
94.6540794243869
94.6428047000275
94.6647966981163
94.6915383920563
94.7322614458567
94.7468328614272
94.7287367697353
94.7471295082192
94.7811669850638
94.8149233573571
94.784670534447
94.7820906619822
94.812867906136
94.8517423118623
94.8674200316078
94.8800911247992
94.8763918005986
94.8682139536719
94.8945911727563
94.9056078006554
94.8828703789624
94.9302725525949
94.9837057330552
94.9870803131849
94.9677355001452
95.0061911606147
95.039674370972
95.0372988298811
95.0481246450915
95.0937355686021
95.1229546789386
95.1290004781562
95.1267215429194
95.1080988692399
95.0970767172441
95.1396903016651
95.1432259686687
95.15515441717
95.1745416037042
95.192278675695
95.2332536037869
95.2394069845444
95.2179039645513
95.2052635538891
95.1989484005325
95.2675276031187
95.3119991991761
95.3344203569919
95.3391220784794
95.3492583882244
95.3626271238062
95.3787506293338
95.370180372924
95.3652147342825
95.3629790504767
95.3889150956631
95.4040976792594
95.3988334215102
95.3970884447381
95.4285269942805
95.4478591457254
95.4583763283385
95.4695572903907
95.4748392030058
95.4750980690829
95.5117465817316
95.5226466162887
95.5224782276083
95.5346825993843
95.5515196194346
95.5466518519482
95.542767497142
95.5528361004579
95.5793156980498
95.6015119810144
95.6138195144428
95.61687740913
95.6099164568084
95.6109989693241
95.6434158088778
95.6494858384791
95.6617034649067
95.678773760389
95.6716859255478
95.6485692185905
95.6703363482219
95.6976204168543
95.7308293065748
95.7471556741083
95.7804150724056
95.7804519495687
95.768063849212
95.7487337019811
95.734855324263
95.7387426301349
95.7781488060531
95.8022425357869
95.8225923630785
95.812377409168
95.7864196123413
95.799301741737
95.8654402600677
95.8767761035989
95.8405883514449
95.8327373777318
95.8694903518731
95.8677485064452
95.8773697060808
95.8986206370035
95.9247444656688
95.921460304925
95.913139336314
95.9115600240694
95.9134396522283
95.9188672550246
95.9297861176574
95.9486325655654
96.0127274867871
96.032372925517
96.0123458274971
95.9869342725
96.0059995656582
96.0372893725857
96.0694279326237
96.0549500191374
96.0362903273556
96.0417973356176
96.069982036538
96.0692834269918
96.0715889563743
96.1031385717202
96.1271616306253
96.1190541090175
96.1055088155127
96.1041759967288
96.113389316808
96.1009240942792
96.1560798214381
96.1949991373079
96.1816040682138
96.1627497814013
96.1670665282448
96.1941395249102
96.2111668480564
96.2069128865481
96.2316153474039
96.227981424824
96.2186509710163
96.2301004712838
96.2544852895782
96.2601509656091
96.2761944747485
96.2736584313761
96.2915109829596
96.3210493449411
96.3009044024461
96.2849123118254
96.3112770674361
96.2998465065513
96.2832883599471
96.2891683340678
96.3335016012795
96.3581603920616
96.3342867991118
96.3278354255082
96.369533272901
96.3764030841581
96.3778384992616
96.3950703745192
96.4107459114347
96.4037218684861
96.3937755393882
96.3889035824509
96.4150812746638
96.4381537026442
96.4434586375066
96.4395520909338
96.448787828399
96.455942054871
96.4729316290981
96.4848560923875
96.5014933450602
96.5019042311493
96.4891191333666
96.5034954064208
96.5230008709023
96.5491470597004
96.5794556022992
96.563991838662
96.538513670655
96.5432164942081
96.57580305862
96.5796572030632
96.5552309227517
96.533291206686
96.5530885131401
96.5915179880959
96.6120748286347
96.5878855123612
96.5768556648234
96.5834552858398
96.5692006831994
96.5750889918936
96.5922970946176
96.6080811838718
96.6336294723872
96.6414462256929
96.6372300638914
96.6579862190937
96.6851686401547
96.6733299212921
96.6553080475451
96.6359321682599
96.6544520366527
96.6950408983507
96.6935655456666
96.7012272279474
96.7341700191084
96.7316860865634
96.7399401376293
96.7300309903639
96.7147178422204
96.7195533990398
96.7548473022839
96.7650277544096
96.766259106668
96.7793594911697
96.7529444740121
96.744121968244
96.7712318073413
96.7612866633033
96.7529347229894
96.7733911084021
96.7991345066728
96.8065613778788
96.8064427285673
96.8105828225408
96.8404083051311
96.8312863881364
96.8319569413536
96.8277116322434
96.7957071087746
96.817491281358
96.8447950482825
96.8309003352975
96.8292908305794
96.838288904771
96.8367946257124
96.8245065439439
96.8554300913438
96.8835001983682
96.8691939504384
96.848406230001
96.8460363851092
96.8514289917082
96.8510802513927
96.8436491751183
96.8764922700856
96.8722065221414
96.8226527854551
96.8052528005026
96.8301439672412
96.8402640826049
96.8181565533212
96.8003647324395
96.77006985513
96.7420558771305
96.7485328489036
96.7458896998793
96.7477555638534
96.7108609389323
96.6819619575049
96.6544495708457
96.6444168907894
96.6530480105405
96.6749135579663
96.6917824159611
96.7003381090329
96.6600153550281
96.6443127482976
96.6628482094613
96.6776527496202
96.667401182099
96.6513346076195
96.6210307564907
96.5916121719305
96.5844796409706
96.5815753905496
96.5647412987982
96.5378612160868
96.5170538460547
96.5239138335261
96.5133051157465
96.492241031347
96.4895420811166
96.4835252870137
96.4262770339764
96.378570020902
96.3975075441697
96.4251672646341
96.4123592989714
96.3831797009859
96.3664057100138
96.3586275198252
96.3295256718012
96.3098620132807
96.3329740397294
96.3629892112233
96.3658743316433
96.3459983777268
96.309868800737
96.3075053319327
96.3229960912521
96.3192840745936
96.3083370378936
96.2863440523738
96.25922145379
96.2402417440166
96.2280904079814
96.2129530298355
96.2163651333165
96.2225529273158
96.20930794575
96.1610466164832
96.1203486961476
96.12977959803
96.0914485125118
96.0640931387065
96.0379745121264
96.0006415301974
95.9806374199773
95.9476822024886
95.89131130415
95.8652926546144
95.8524618416479
95.8427734451544
95.8137696094036
95.7616593519288
95.724657110075
95.654514090971
95.6185674814701
95.61983327821
95.5974411670172
95.5830306206548
95.5714764364945
95.5761654517179
95.5773261781274
95.569996632055
95.5442443983045
95.5356398235148
95.5352604105994
95.5366157812981
95.541435517771
95.5408209727602
95.5376447526272
95.5405260141769
95.5425377821953
95.5434622929971
95.5353873789507
95.5189261201838
95.523527024201
95.5587039538507
95.5945776022236
95.5993667857704
95.5705748840619
95.5738351352835
95.5988802174143
95.6151660533898
95.6106316317322
95.6250346133009
95.643539403989
95.6237010284929
95.6137510613477
95.6308262039485
95.6295199978238
95.6115402373481
95.5962378898227
95.5885684985912
95.599759383907
95.6334843648281
95.6347235324337
95.6172284781024
95.6109080991953
95.6386745249668
95.6523277948839
95.662016416706
95.6763743146455
95.6768065082996
95.6743513384126
95.6921194789449
95.6992835624244
95.717874548699
95.7382304462544
95.7436092677255
95.7325649842861
95.7405363349785
95.7653540745985
95.7930114417776
95.8034000679639
95.8071691303673
95.8029852234822
95.8329503865716
95.8612269391346
95.8929372110853
95.9116296542794
95.8974520261058
95.9047644358952
95.9296138114475
95.9574356119853
95.9859531711795
96.0006482184905
95.9872703057439
96.0019383704862
96.0463585657963
96.0693700389313
96.0753107633856
96.0769013983838
96.0885319462585
96.0965308943141
96.1145159076873
96.1377540994167
96.1538597389652
96.1688203758384
96.1761189713567
96.188853480322
96.2052386122967
96.2103403297566
96.2083146205779
96.2073235487507
96.2094006660715
96.2355984566999
96.2563018596507
96.2608610287913
96.277231305009
96.2883908799164
96.2909518769983
96.2815220410588
96.2830307874001
96.2911309858785
96.3212567831604
96.3332734686721
96.3169578318522
96.3261469014249
96.3403035897772
96.3385490587975
96.3398402277443
96.340809614372
96.3462594660434
96.3809013929088
96.3849056751304
96.3680894334887
96.3923645966505
96.4159443804752
96.4129824700811
96.409852324498
96.428413286091
96.4326105425295
96.442686630658
96.4495351908815
96.4474909422914
96.4571970192387
96.4689658228048
96.4808521578608
96.469347812696
96.4741070822696
96.4741258365168
96.4688901837666
96.4601891911601
96.4754023101296
96.4985755849545
96.5104002333661
96.5314369090875
96.5046685389487
96.4901025535448
96.5166373195228
96.5128151934829
96.5123351928137
96.5322174535688
96.522112733248
96.52966437304
96.5511718885648
96.5639642854604
96.5745493021839
96.5863670716486
96.5925185162685
96.573541780278
96.5428669332231
96.5385986995333
96.5493942332374
96.5525044414753
96.555544947567
96.5565284837324
96.5460636427461
96.5551741754633
96.5757187320681
96.5843411687212
96.5877931192789
96.5884254033341
96.5913934593061
96.5782499162836
96.5614145049848
96.5643896680429
96.5661957754191
96.5792249019599
96.5898575871058
96.5847844353961
96.5999313670572
96.6082492568303
96.6039444877827
96.6078465143856
96.6137200450275
96.6121527671389
96.6031684371302
96.59182415592
96.5955276225655
96.6213744813182
96.6114045600588
96.5962562877244
96.6184721508998
96.6256509740157
96.5998579228354
96.5824272577648
96.6148186390195
96.6353573048809
96.6333898898368
96.6214750428428
96.6058645105578
96.5907513575711
96.5971090474759
96.6304104961166
96.629707358277
96.6337389710682
96.6472740797329
96.6352254760028
96.6115096880548
96.603894517819
96.5883726900136
96.5878044566777
96.6160587793451
96.6298947735212
96.6108621852901
96.6067251340008
96.6415535602086
96.6554399753596
96.6356752206883
96.6171761688277
96.6084572189927
96.6483196156085
96.6807176451157
96.676722377247
96.6711975829704
96.6780238225383
96.6728818893699
96.6634427038062
96.6614811719682
96.6617244728397
96.6521345659829
96.6467622045044
96.6592238334324
96.6681401676312
96.6817558030786
96.6899568323539
96.6752988748034
96.676297423583
96.6983341868111
96.7030559351413
96.6855089104665
96.6975373952189
96.7143833772108
96.7121719235839
96.6944394067239
96.6945601206625
96.7276947574211
96.7405579480402
96.7259815147279
96.712804311154
96.7105358415516
96.7154303727629
96.7182342495876
96.7248033532117
96.7443770111427
96.7711686892317
96.7741775616481
96.7529092666925
96.736787609708
96.7453207931448
96.7685132299559
96.7744770922325
96.769626271306
96.7607875186939
96.7634061255654
96.758400644487
96.7447981338285
96.739084801763
96.7478726300726
96.7358315100392
96.7339318800769
96.737433010474
96.7314993369537
96.7270481958637
96.7322191305174
96.7334009284716
96.74721425891
96.7501828254775
96.754171899867
96.7624146686865
96.7517155513814
96.7494737127652
96.7490369453458
96.7497479476991
96.7636137284843
96.7685068956275
96.7647268712193
96.7640114478928
96.7768377162863
96.78111393406
96.778142650096
96.8007459951486
96.7962772726619
96.7676065891164
96.7700631064534
96.7953682911447
96.7879881461889
96.7829480156999
96.7860934553233
96.7979741947029
96.8322893840772
96.8412577831144
96.8121643281431
96.8039059511208
96.8538916239052
96.8682772153442
96.8502807061876
96.8401875916915
96.8388915481261
96.8412073485467
96.8470343416769
96.8535008879483
96.8427955879306
96.8494201198838
96.8652598462514
96.8692891480313
96.8796087002625
96.9049054314194
96.9227928281198
96.9187700459761
96.9173142424987
96.8964458887661
96.8743504440851
96.8682499558811
96.8807825848289
96.9095086410848
96.9190648817083
96.9208483039081
96.9308395847037
96.9229493310348
96.932412802214
96.9512449197299
96.9432154385224
96.9374166453987
96.9647865028629
96.9459844499277
96.9210104107868
96.9743789064359
97.0024777810577
96.9723825816151
96.9770492155247
97.0134633654962
97.018744394201
97.0197358150956
97.0319182515156
97.0150337504735
96.9864827951009
96.997534888162
97.0220538519661
97.0255139238932
97.032837328257
97.0457094568798
97.0348002938785
97.006994676601
97.0389871461726
97.0607211082069
97.0428236731596
97.021440949589
97.0002756569438
97.0194245271178
97.0678613399241
97.064295401423
96.9991425460367
96.9829361281841
97.0203759633494
97.0403465851756
97.075061746683
97.1148261693822
97.0952481311134
97.0720996782357
97.0836857953542
97.089809354746
97.0651864030775
97.086955158389
97.1219991859571
97.1344360923742
97.1181447808109
97.1034701869881
97.1051651662886
97.0893099373855
97.1246685421244
97.1098069516376
97.0851552586139
97.121612617993
97.1437661690143
97.130307885544
97.132248778107
97.0752739061981
97.075852757433
97.1354447486667
97.1442489047076
97.1081261152917
97.0759401926123
97.0838419397455
97.1070796070589
97.1299467156232
97.1540126628209
97.1302078925812
97.1073797959934
97.1405881684473
97.1237153491912
97.0525272868132
97.0555423678436
97.0643456686505
97.0927800611015
97.1563827186423
97.1774202794755
97.1683971086018
97.1248528078644
97.1019515879206
97.1172588565151
97.1292251115749
97.1401003557982
97.1350782273009
97.1596802044587
97.1405965885446
97.0893096495546
97.09317096908
97.1652967854932
97.167715653169
97.1313042917112
97.1574036903548
97.1587060736174
97.134305271382
97.1387195040327
97.1505189977738
97.1485343260645
97.1495985068968
97.1859429485723
97.1596004583435
97.1249931468939
97.1481714973327
97.1746443816497
97.192431272303
97.2083937107712
97.1725938328407
97.1775153787064
97.1772522038645
97.1923519102764
97.1767063695041
97.1705501976983
97.1645272148279
97.1680694238285
97.2040576272324
97.2097557420912
97.1654642949854
97.1266550239588
97.132274956865
97.1929473601029
97.2138868385212
97.1902061052578
97.1790387081802
97.1658443260211
97.1321585305456
97.1316830011748
97.160995415282
97.1675504811981
97.1697116044232
97.1763537567122
97.1799199336283
97.2061676223648
97.2151381852186
97.1901364299163
97.1505724352291
97.1632071869735
97.1855407392036
97.1743256463049
97.1832795513146
97.2016981865658
97.1713052562068
97.1734258256414
97.1939574267064
97.2257382690622
97.2368413118232
97.2403891888866
97.2269411856989
97.2354042902731
97.2468049839931
97.2545184633537
97.2620956810886
97.2348547382415
97.1770657934212
97.1701234098951
97.1971929765532
97.2454243426385
97.242704763652
97.2296023745804
97.2309786898031
97.2313904834893
97.2192416701886
97.2329351583588
97.2716761774512
97.2993653482918
97.2849456933679
97.2364640497347
97.2239712689251
97.2531313772648
97.2370419399654
97.2253504143931
97.2433419585732
97.2624013274542
97.2180605981906
97.217512523566
97.2343069830989
97.2491842406844
97.2493271783869
97.2474235057847
97.2347867581707
97.2713600287886
97.2834607652139
97.2888890601872
97.2584276166618
97.2603755949032
97.2681490990956
97.2421027237134
97.2530851152707
97.2846521621081
97.3055807877075
97.3158471556856
97.2943055819957
97.2965727259051
97.2870769831898
97.3135388152677
97.3492424589741
97.3099460111837
97.2761099208892
97.2961890837111
97.3152604556868
97.3222454607094
97.2871837587358
97.2597531171735
97.2627321752169
97.2931371826703
97.3040447879583
97.3244998136345
97.3007040912202
97.2909644670572
97.2787582790685
97.2508582682824
97.2758822998134
97.315184354276
97.2976483096366
97.2918699851339
97.3135517082814
97.3354332656591
97.3505913913201
97.3484328182883
97.3151657151953
97.3322320286912
97.3226515457775
97.3003160963614
97.3092780537023
97.3303464612764
97.3097282036904
97.3052741502553
97.318347508563
97.3415592417794
97.3483184562457
97.3262488873839
97.3083427664679
97.3514124967123
97.3365859388124
97.3415726533741
97.3257507444387
97.298845129733
97.2753487990738
97.3018619259732
97.3237659722332
97.3079403981495
97.2684157575144
97.2663501943888
97.3063333415799
97.3524303100785
97.3033070448248
97.296711812437
97.3068417768846
97.3015260362241
97.2838381491583
97.2806580137256
97.2588224625659
97.2458251643767
97.2006438825289
97.2145081899599
97.2238850352
97.2382453566895
97.2509293981729
97.3385505761295
97.404233290793
97.387733450009
97.2567812816637
97.2167761930062
97.3123336728726
97.3892431150074
97.2896500003217
97.2775942272682
97.369888081806
97.3358527464036
97.2407402763908
97.3138641090106
97.2429936513443
97.2744537324822
97.3328204571941
97.3011937374729
97.2480127610571
97.2289805830594
97.2403603952093
97.247841370968
97.2020617642148
97.3102711194707
97.3871878097492
97.3796340989059
97.3616809612707
97.3727435814372
97.2666288092675
97.2631374621886
97.2286001124913
97.2671201603241
97.2374310622809
97.2546686660367
97.2257188746786
97.2967269964557
97.2766137600339
97.3239260926001
97.3131784640372
97.3881759448981
97.3108980649123
97.3049653595939
97.2200156289942
97.2975064039409
97.276571538625
97.3456001689376
97.2448785272028
97.2479393469272
97.2133150849612
97.3093065955088
97.223496749151
97.171420991264
97.117120790756
97.184376353421
97.1944085578838
97.1245139386895
97.1712205681516
97.2260832352084
97.2566653760109
97.1620983461433
97.2804099915956
97.1960764869369
97.2669645842126
97.2535411127913
97.3297761651054
97.2753911652417
97.3233080106027
97.2942547763087
97.3029793669184
97.3245984350536
97.3664198392469
97.3731037657435
97.3780997329116
97.3641757228944
97.3537402536671
97.3637775826537
97.4059592535228
97.3937059947411
97.4380665919144
97.4231898446784
97.4412114342662
97.4384220116414
97.4178574947194
97.3507649477593
97.4053019801771
97.4559378635042
97.4273866655127
97.3980200458164
97.4557792251667
97.4597315468333
97.4863921176409
97.473836970062
97.5035407274008
97.5312486198631
97.5668705904753
97.5671845410565
97.5763775354418
97.5950083236565
97.5885711862886
97.5628715738224
97.6242550161329
97.6681427733731
97.6524367888261
97.6577405608762
97.68174813425
97.6582111026412
97.6735876894124
97.6903058667208
97.7226060850054
97.694393807666
97.698740320801
97.7267419909164
97.8023679035865
97.8301971686569
97.8552336998787
97.8608977730772
97.8775125501157
97.8575989995281
97.8964806892234
97.8808576088894
97.8139804131565
97.7957130044674
97.875991291533
97.8775110074361
97.8127287693121
97.7891684221087
97.8594921341671
97.8919280465807
97.9035172079236
97.930018869234
97.9128833956375
97.8684505383135
97.8869065834901
97.9076949694642
97.9320722442725
97.9010490610763
97.8971256695066
97.8818070812484
97.9028033704413
97.9015578645218
97.9447798323196
97.9657878359234
97.9798633917006
97.9690056670507
98.0098271645859
97.9919960351368
97.9862550589964
97.954134978767
98.0315199595808
98.0796206642587
98.1077527380883
98.1559368906277
98.1823656958503
98.1457980481972
98.1355609204957
98.136850742892
98.2074210692907
98.1725334881811
98.0627149107541
98.0490917655947
98.0830213415487
98.0868769060817
98.1625854111306
98.0951904021401
97.9765722423433
98.0644735840878
98.0663136148225
98.0443033695264
98.1237830819358
98.1082601294851
98.1825054943415
98.2110610408609
98.1155152560852
98.0150509700334
98.0341172496431
98.114925832254
98.2957941400578
98.4107891175653
98.2771072033734
98.1060128239499
98.0816009568567
98.1888412580444
98.2675695043228
98.2604622536858
98.294403506811
98.1673557075814
98.0831369743357
98.1554064094867
98.2820838297785
98.3086588808545
98.3267071573633
98.3630042886203
98.4008918754403
98.3670281747282
98.3328106149524
98.3782537099322
98.3065768766112
98.2973440937964
98.4643839314504
98.5374886696444
98.4701696985061
98.4447151041856
98.4874096566688
98.4998451970678
98.5816834967762
98.5140948960827
98.3997094061153
98.4798075328579
98.6092527397433
98.5805551114675
98.5766894680041
98.5825516153549
98.574844224606
98.4914555410587
98.4898750109315
98.5906947853305
98.6882568100284
98.6665283301112
98.8125178241852
98.8745191281979
98.8569874165147
98.8067064721643
98.6417428231585
98.5856849787622
98.7823153443936
98.9870764261602
99.140441338891
99.0871455539132
98.9842434935764
98.8457180903694
98.7848208048018
98.8933814318262
98.8931792820085
98.7713568355897
98.670276498343
98.646909520475
98.5434187740807
98.32230217212
98.314501473616
98.3435834098325
98.2896332802609
98.3384852918561
98.3994900543459
98.3052872160062
98.2339364463315
98.1381778467408
98.1705649458053
98.1801841712771
98.2614190295425
98.2893413047841
98.2423820006509
98.1688603219867
98.1269043860628
98.1148704836671
98.113398632663
98.0010917393577
97.9722293951642
98.0230230140354
98.0315049912161
97.9033064545574
97.8486012292789
97.8679940856308
97.8415325145568
97.8550020406302
97.8384586580581
97.7647416141199
97.7899769862593
97.803096983047
97.7784001452247
97.7328042886062
97.7284406948949
97.7457364803565
97.7742873319235
97.7452666671901
97.6976047538575
97.7047408561688
97.7052390101055
97.720626847046
97.6785545098933
97.6368199986559
97.6932301097006
97.6772395258593
97.6549545594055
97.6295575899272
97.6265574878943
97.6366503082016
97.6955449395841
97.7235657256773
97.7372613395417
97.8031068594007
97.8105845730178
97.6966016631224
97.6751133806146
97.6618410444309
97.6181772686842
97.6725655719745
97.7040190473245
97.6916326535133
97.7122809472006
97.7456240986587
97.7496867742971
97.7009674169672
97.6884090591928
97.6861955648508
97.6404309412853
97.6071500105352
97.6330762281914
97.7146462151373
97.7088346381374
97.702039064311
97.7487203341378
97.7964168690267
97.801290423176
97.754829280003
97.7505703389355
97.7958587851888
97.7952647780493
97.7935512759124
97.7815529816677
97.7510198948721
97.7964666538411
97.8515108159881
97.8477783125165
97.7956906377622
97.822371749937
97.852465223564
97.8147408294884
97.7892656624017
97.8434640775264
97.862179225118
97.8222319754523
97.8271462131855
97.8027539621961
97.8144617462051
97.8125610243565
97.7991358173776
97.8402676409169
97.8076494898916
97.8086649013597
97.8056061237967
97.8544158124142
97.9238194424387
97.9680528050239
97.8896573698094
97.9349107697848
97.9902048108854
97.9226231946304
98.020705108132
98.1299354627034
98.0289371297102
97.9547285958237
98.0438310718844
98.1319658027278
98.0875523940626
98.1080270590569
98.167767658839
98.2314523613226
98.2907768833239
98.3747974988584
98.4357842913191
98.4234696871476
98.3412406313548
98.2771091861438
98.3570481422125
98.3598357939012
98.3649500207014
98.4538928930262
98.4495683764394
98.2212480535963
98.0164235718858
97.9342995215941
97.9948401837737
98.0997239762508
98.3328351934143
98.3563926907278
98.2708154577972
98.3019983171791
98.2845885667177
98.2589705058688
98.3229888579721
98.2863016463653
98.2693279283936
98.3239244570444
98.2308143106453
98.1221084744078
98.2072461718483
98.1841279310303
98.266207588749
98.4032625587495
98.2600776421181
98.0921547072354
98.1868468395711
98.1790459441063
98.0525901807626
98.0393734411041
98.1082140836047
98.1093188743177
98.1526642616702
98.2182352869734
98.1903422738259
98.1380227254484
98.1277877100048
98.0538857287061
97.9742044377263
98.1442250092381
98.2729146384477
98.0838935957397
97.8556592540824
97.8760472681855
97.9689838405625
98.0076547645862
98.0034546627248
98.1226790756424
98.186181594728
98.1198713187952
98.0735735842761
98.1721545322097
98.2373273445158
98.1144139390141
98.0240041912123
98.0302430905208
98.1256701852306
98.2109025978771
98.2868087412702
98.3483878225949
98.3683383028772
98.3800104758565
98.3135100205248
98.2341421482208
98.2102082029802
98.3087088410334
98.2636958787486
98.18968831424
98.1078838759331
98.0460221331075
98.0553233081245
98.0950735508419
98.1445917131646
98.1785677478487
98.1148118137263
98.0991643877829
98.0446674564945
97.9739556484489
97.9310173139433
97.921032952063
97.9338624842282
97.9505828201361
97.8798545393117
97.895376790798
97.9938909936271
97.9578774345469
97.860443118666
97.7717436433241
97.810901175134
97.937774737968
97.8992300478895
97.7945021235631
97.7441487346115
97.8674025943016
97.8238246384325
97.6950331756731
97.6789687547182
97.7589804176318
97.8330817211047
97.7751081103052
97.6663584175471
97.6921078156139
97.7828242945891
97.8520496088666
97.824236319571
97.7206991583944
97.7350669854956
97.8026769750939
97.8315901855241
97.7655781241986
97.7201710146888
97.7746328828218
97.8408512495603
97.8296850213743
97.8033385251455
97.7295202911747
97.6322498557515
97.6619532045071
97.6401687529699
97.7457507137132
97.8183853341583
97.6123781612468
97.4965743778386
97.487422111007
97.6140862144364
97.6665967251286
97.6726845248647
97.6607093733796
97.7308016471951
97.7623082848567
97.7365098451258
97.6651025378366
97.6194910792574
97.6068591223823
97.6506964365085
97.7026968688105
97.7037841600384
97.6632677005725
97.6448042151291
97.6242625928083
97.65658189237
97.6918421581678
97.6624521195341
97.6371611542717
97.6985859554516
97.6815510671987
97.580414836427
97.5662010681345
97.5974871328283
97.6132472205394
97.7109407840966
97.6338404724844
97.460694861567
97.4797770347857
97.5428470861794
97.6251520729264
97.6200613397312
97.5943722319434
97.6125010304125
97.6432768990889
97.5809157808805
97.6081724509046
97.6713853955959
97.6154469370902
97.5849318116231
97.6272323455257
97.6209009273718
97.6226261451575
97.5798089062991
97.5762947957698
97.5845110948523
97.6124822275362
97.6729765262291
97.5041386130304
97.3566757178321
97.3522753551442
97.34040633693
97.3772088464078
97.4853446840436
97.5509808239911
97.5630857244175
97.5858125541511
97.601314927044
97.6210437530624
97.6023410886483
97.5908359409196
97.5546073940354
97.556236242164
97.580652909445
97.6168774528573
97.6044437788504
97.5938502001893
97.5730463243739
97.5681666966641
97.5673491924261
97.6582453979416
97.5941039461209
97.4916347466222
97.5021087025803
97.6993199612138
97.3927233652136
97.1883472218356
97.2727403168101
97.3912625735432
97.5187197918285
97.5432667718153
97.577861162376
97.5911048410557
97.5118983002413
97.490433233731
97.5253297877685
97.5519326367139
97.4998687680413
97.5273433084708
97.7000894473579
97.6109379748431
97.2496061248741
97.2399377259699
97.3256973442429
97.5767998614503
97.5889869912574
97.2686845301245
97.3237718930736
97.4507335579156
97.5141740840774
97.5150022408295
97.5445215820564
97.595144569667
97.5963066716313
97.5270208320948
97.5326763687346
97.530813423181
97.5233114918715
97.5642432085297
97.5776271182636
97.5936686687988
97.4663980989936
97.3519085108504
97.4548991926864
97.4699689114919
97.4680513233064
97.5152346895447
97.5167409166192
97.5188303814179
97.6008502586306
97.5773512485949
97.4471783020974
97.4475414519889
97.2984923538953
97.2497255004564
97.4181478601641
97.4951096222755
97.4270638089735
97.3960057492382
97.6474458105736
97.5687644082379
97.2837421369848
97.1858080054757
97.0812047139795
97.2939845161911
97.4114030578067
97.4797333218351
97.5485221766094
97.6627874018858
97.4056344667151
97.3641266635284
97.3971846961712
97.5548719009439
97.4636055463866
97.3129003907844
97.3019776190357
97.3590410414677
97.4614249487381
97.5573723245186
97.3276080657706
97.3847895044917
97.5665575733732
97.3341375421863
97.0335258361146
96.8259286611325
97.1599516272231
97.4791829903245
97.2053642432037
97.1663846541164
97.2783584229745
97.4287305756445
97.4256492466306
97.5693607975666
97.5329441255812
97.1475264049857
97.1810613251861
97.2980690841282
97.3838982751788
97.5254853290169
97.3045068617417
97.2111402361844
97.2957835609582
97.3647751986704
97.4084733573165
97.5163268384639
97.0332632829567
97.0106729365516
97.0499735881833
96.8953471308328
96.8812134743841
96.8925790151587
96.9837097475149
97.0680884686865
97.0356798330627
96.7706630601507
96.7771159219674
97.0422560166966
96.8963694115616
96.4979717012891
96.5811157092879
96.5968865618796
96.7739269837715
96.9371748557548
96.6196418945327
95.912758895413
95.8141088437995
96.1596501583081
96.3854606133956
96.1643362578927
96.1644017975096
96.2487626750037
96.3067006887102
96.3099574993855
96.3042990282866
96.2685494624409
96.1062926276834
96.0543581182298
96.0285117792961
96.1001895717427
96.1915899261503
96.0596985631719
95.5296806626811
95.2604130315349
95.6410808954396
95.4574092474114
95.377387573384
95.564050192404
95.819196623955
95.941909285271
95.8107657852629
95.708674582568
95.7971719716535
95.9072909890048
95.6484344107614
95.5412355471191
95.5461405100175
95.3820985566066
95.5546400655131
95.8522632631553
95.9828566338712
94.8594482398735
94.8490403834992
95.2517693636941
95.7346515669887
95.7280370559566
94.9587294471018
95.2296414400302
95.6763809548027
95.823997572776
95.9790356827445
95.9791049490761
95.8698283962867
95.7901794157612
95.653717369601
95.7749644597323
96.0740101511823
95.9265238472139
95.2273984991407
94.8243997065779
95.3040221442436
95.8935029584561
95.9624069249113
95.871276948352
96.0252263983029
96.1088377439074
96.3497169971796
96.2926359944858
95.6934097082804
95.8060335395625
96.1035604102496
96.2059107379747
95.9720572378985
96.2656717311556
95.9489602735976
95.6832443137607
95.9153543350419
96.1878716303672
96.2806661552863
96.3607438210376
96.5057813875806
96.1420577545568
95.9387326680407
96.088884634391
96.1842875449667
96.2289575163703
96.2708473768811
96.2718726246752
96.2655969879498
96.3653635730666
96.1925844350171
95.9173664007348
94.8955811210811
95.0394842471773
95.7395326047636
96.1513643347937
96.3807919467085
96.1044542579796
96.0126872623152
95.6316309581251
95.5097479918046
95.9411042647065
96.1419177729925
96.2155906218278
96.2048166221612
96.1991011643336
96.1562847727853
96.2756362953255
96.0532676417192
96.1632819360708
95.9933212840308
95.2288319825428
95.5984093629395
96.0136346933225
96.211489992336
96.2973410267958
96.3032964490169
96.3833125516662
96.3029799366651
95.956405564376
96.0536244441519
96.1782011597338
96.4115812365691
96.1954253902006
95.8839996495457
96.0586614679599
96.2067099731053
96.3267359234752
96.3447424616478
96.5605430535416
96.4815819326518
95.7979053942183
95.9805847928883
96.2492321163931
96.4001666476033
96.4714624733269
96.5206418051243
96.5685380205983
96.4777876842342
96.3838378551073
96.4910266875809
96.4522716760358
96.4888211117234
96.5480399293178
96.6107704514936
96.5609078729942
96.568730550429
96.58892915609
96.6181356264274
96.6603091435662
96.6755683041794
96.7123603214708
96.69780854052
96.6824859169767
96.6590847286318
96.6181190424095
96.6969692180501
96.7243440192092
96.7274291484403
96.721971934559
96.7062134724037
96.7087369540616
96.7482872495905
96.7791477945007
96.789944124096
96.7978508592845
96.7954022106417
96.7919982947608
96.7896547190174
96.7918132602734
96.7918727040966
96.806440432096
96.824340802888
96.9699645859664
96.4729811339599
96.1041575639564
96.4743603047433
96.6754749960153
96.8026742169048
96.838372476844
97.0081447005029
96.6359763154397
96.2657872977499
96.4723460806896
96.6788451785096
96.8593522360169
96.7561788826961
96.6035600836176
96.7223751692062
96.7287922806071
96.9726358905729
96.7896127142871
96.2347033788217
95.896455768903
95.2485184699965
95.8375346426682
96.6615628334279
96.8280554753772
96.3129571141617
96.5116863163098
96.683583507121
96.8760525992623
96.6232939255629
96.401224676886
96.6133624492818
96.6936882829679
96.8944468471428
96.7831139291053
96.3690690226618
96.4891898592383
96.5045935061433
96.19032527876
96.3847923712738
96.3259223508868
95.6589122628679
95.7706470552589
96.491373521625
96.7695155450775
96.9371300563674
97.0256539820268
96.4553792527539
96.3763751673639
96.5034876585278
96.6662401877084
96.8980289613823
96.8722748795438
96.6889116877943
96.6758762111286
96.8106782186141
96.3198215719689
96.5626592124342
96.8009169132903
96.7283238306384
96.4879065463768
96.0315596667916
96.2973918119861
96.887691396266
96.8856403716929
96.3713091812896
96.4891338266046
96.4955915089924
96.7889511302026
97.0414068571146
96.7174982182013
96.8123779688866
96.9019203449277
96.7756585799577
96.713034712607
96.4178686813032
96.0968968032516
95.7819097866002
96.2346464389682
96.8309889858885
97.0373076777159
97.0378806584535
97.0147201113818
97.2316709654941
97.0040136566534
96.7582073193002
97.0893719546881
96.708034948264
96.6412682856325
96.9406122186319
97.0634571720193
97.1638989660209
97.2173629646823
96.9999320371071
96.5710831763447
96.6245307295925
96.8657539468679
96.6338896824193
96.7335601321123
96.8658303512087
96.9557403474633
96.9263426787786
96.9355421852456
96.752546715209
96.670284100597
96.7302885234051
96.7384801933001
96.8380751154013
96.7522734407149
96.2996074310802
96.6249774938066
96.5640927594707
96.4129400565404
96.0866126683192
95.9738837817304
96.3694961133019
96.5196819162089
96.5944510552712
96.5355674939328
96.5791385306488
96.565746412829
96.0329283507907
96.0781451628277
96.1964998806403
96.2048220294389
96.1542133677153
96.1515746291738
95.8965389294443
95.7377518673945
95.4929044671671
95.0503270323975
95.2875590027003
95.3942861115553
95.6786069193281
95.7359193638194
95.6532532046234
95.6500455396717
95.6974245155159
95.7457477756831
95.4317832991486
95.439283220777
95.5941516237242
95.615408466928
95.6536476167335
95.6697785295647
95.6697066906544
95.6380701688522
95.6261280650923
95.5878135178157
95.6038475286476
95.7048793203582
95.111836410479
94.884457949782
95.1730853899847
95.2023839356435
95.1549462790213
95.0836273340153
95.1079551469465
94.8460687709926
94.6649156416428
94.7616585535874
94.7759278842204
94.8051749356833
94.8393833983885
94.8281623689925
94.5258542190981
94.6480950813701
94.7931949732471
94.9786489311402
94.952175146027
94.4261014496947
94.6536297606469
94.7849819880452
95.0587065706606
95.2402311426355
95.3744180381843
95.4544079995285
95.4931181413201
95.4632593951131
95.50018239741
95.517079629178
95.5594096458763
95.5988395130383
95.6171013506034
95.6837531729428
95.4396421105296
95.4021489688744
95.6040092314647
95.6723527334214
95.7052387770054
95.8034313651614
95.681758232848
95.3999867220715
95.526373905865
95.6727626994539
95.6958458086764
95.514860733178
95.4962393143683
95.7038797815259
95.8118686849977
95.860598447495
95.8889960508731
95.9206665591163
95.9469798422433
95.5985733199475
95.5707188736351
95.7010624409416
95.7608124479032
95.7321916303417
95.713815478052
95.6538031482026
95.6067823571393
95.4877234197424
95.4016657569097
95.2700864251031
95.1730912857071
95.1242984648363
94.9665899410111
94.7510370913774
94.5717023302606
94.5372086546437
94.5237898940824
94.4624495005276
94.4470117899789
94.3014240461322
94.2635250678314
94.3240289840577
94.357382479762
94.3405575654268
94.4079906905516
94.0810496524334
93.9887986940558
94.072826870302
94.0111392940004
94.1420606951943
94.1946695458649
94.2204121752246
94.2224836420208
94.2317643499604
94.1848534011352
94.2180455009034
94.2827430412456
94.3524240908694
94.4164567167161
94.457675357422
94.47970250882
94.5269125799132
94.5656015005555
94.5526621160554
94.5398356947938
94.4976262609331
94.4410526150747
94.3348783298057
94.265153642642
94.0986980800309
93.8145533413748
93.6456235771487
93.6291235456387
93.6907424692417
93.576918880571
93.5768821275058
93.5678929295635
93.5789696512488
93.5700742059992
93.5996545908448
93.6511335542561
93.7162345014772
93.7861905232482
93.857155312741
93.9034672672735
93.9310757321971
93.9323708506467
93.925725570779
93.881019910506
93.8295441052012
93.7438849930923
93.642369505649
93.5027847563858
93.3393008752452
93.229095900291
93.0733813840646
92.9999026295254
92.9078559365358
92.8359128226358
92.798855128116
92.8150130978103
92.9058000441283
92.9952531279703
93.0873637884528
93.1741523245041
93.2873462271847
93.4118160367434
93.52916655201
93.6553655669063
93.7851164547759
93.8974252417261
94.0019755401956
94.1074321004824
94.214807035184
94.3117161377922
94.3924559959178
94.4610204000496
94.5209491570455
94.5883386413692
94.6271620576095
94.6423115594643
94.6398082492927
94.6439203161181
94.6495462037108
94.6737877284228
94.67938549576
94.656778543438
94.6600646253359
94.6651251731288
94.6408323972111
94.6017524051527
94.5571441361606
94.5015545360917
94.4355418367481
94.3897099318843
94.3810249804156
94.4040857926416
94.4266707167405
94.4552239416945
94.4678369405814
94.4925786569587
94.5272696183352
94.5655076409133
94.5718341683027
94.6101892788669
94.6681487978435
94.7166337822893
94.7731014645214
94.8115640191654
94.8348761704354
94.8560695629064
94.8838563572051
94.9120984100748
94.9382235384738
94.9568416190623
94.9589075678137
94.9611767493135
95.0029188665337
95.0324372963887
95.0634435893264
95.0910832451484
95.1011432519979
95.1018223743492
95.1017647612955
95.0974748081463
95.0961304467844
95.0884506161442
95.0755897316036
95.0536953117691
95.0371072210665
95.0277685313836
95.0291464237856
95.0409714994029
95.0524790691532
95.0788530989745
95.1070183661631
95.1276968384946
95.1437849758142
95.1569496337938
95.1629179703429
95.1599161541434
95.1514671915352
95.1444702744086
95.1373515052926
95.1337229156844
95.1486932296331
95.188401604505
95.2402010436886
95.2821133080817
95.325765040911
95.3673595590988
95.402858428474
95.4444085082247
95.4802075897246
95.5176946297176
95.5628630853706
95.6056713110558
95.6507681596241
95.7035534999641
95.7592339116588
95.8130802251843
95.8649189668687
95.9053977073864
95.9275490472093
95.9494946058092
95.9670674766049
95.9695895207369
95.9538553853538
95.9175197053746
95.8641017011184
95.7725526149305
95.6455256697248
95.5220695572974
95.4102380867901
95.3166100349283
95.2578645625514
95.2244282058399
95.2045405023314
95.1961580738692
95.1996070477619
95.2125483546157
95.2355162593453
95.2709543826516
95.3180153854538
95.3725916757371
95.4307122934354
95.4961943609813
95.5670227585574
95.6236288831907
95.6798823790903
95.7390989564908
95.7906075110877
95.8456446914035
95.8991346765941
95.9365849005512
95.9600806398101
95.9851491291206
95.9999487471273
96.0014641531999
95.9912144952401
95.973648904915
95.9455510208886
95.9060152900176
95.8607683081528
95.8105864746364
95.7463890886826
95.6638971783038
95.5638295792418
95.441801332856
95.305702552242
95.1435331569669
94.9519458346795
94.7258144007517
94.4557627996281
94.1489120430144
93.7967039937083
93.4169136354738
93.0239738562891
92.639761919287
92.286491712731
91.9706451103695
91.7187098057771
91.5417194099756
91.4340935546756
91.4041910606334
91.4427217625437
91.5250403057589
91.6337852901706
91.752607972484
91.8712887833097
92.0031832187285
92.1474456349277
92.2872719972532
92.4222568459825
92.5632242084501
92.6858727214331
92.793428655799
92.9066048395416
93.035861409795
93.1851434992829
93.3556639280218
93.5344218364509
93.7086395093593
93.8737430121069
94.0285358083293
94.1693211800128
94.2736669400339
94.3383597161188
94.3733315991352
94.3639166652096
94.3117638063814
94.2254153004972
94.1170440074056
94.0086628967808
93.9072610260099
93.7968528853404
93.6659602219717
93.5028343946166
93.3025642167685
93.0716137420054
92.8216096808183
92.5536965071557
92.2949184027485
92.0738820209599
91.887653134396
91.7253996932744
91.5636282704099
91.3814196123561
91.1625267867153
90.8892115774222
90.5525810802049
90.1555516750808
89.7184462331008
89.2716174340692
88.8592630779842
88.5203427246763
88.2820158104073
88.1490451804674
88.0994256963165
88.0965753942661
88.1224244311178
88.1480299315777
88.1445578922217
88.1340686527106
88.1427400339401
88.1691054481988
88.2087087198058
88.2809965889456
88.4034752741966
88.5502416836627
88.7097542066386
88.8777623145426
89.0414785220775
89.201887055137
89.3619753898845
89.5095758044939
89.6509456075488
89.7767499561323
89.8605416226064
89.9161062368738
89.9711193578189
90.0248131070626
90.0687271025089
90.0967906993068
90.114647054935
90.1320514136172
90.1311134361877
90.0936116049671
90.0248057711654
89.9226006999754
89.7792963596064
89.5824986164513
89.3502643985358
89.1243567542736
88.9293709574204
88.7626793090436
88.6223626651051
88.486097731067
88.3364050043755
88.1814243277923
88.0088618229815
87.7908228776369
87.5247541437472
87.2137836554635
86.8470042194691
86.4265586108014
85.9522314786447
85.4303249117055
84.8641117679087
84.2652176291199
83.6819053696335
83.1472672982581
82.698893052272
82.3472882144712
82.0713403921471
81.8586688797233
81.6993302957431
81.5815278857243
81.515133992435
81.4993544637191
81.5532325472355
81.6868221735096
81.8606466155416
82.0567265030677
82.2911227086631
82.553537439211
82.8198729605371
83.073749631781
83.3013145453868
83.4835236853447
83.5945537496773
83.6106416273316
83.5259604665542
83.3497313630849
83.0989155908545
82.7687971801491
82.3778832035811
81.9634679876103
81.5653595480597
81.2100313611999
80.917106140958
80.7032088881262
80.5582332308846
80.469934966152
80.4356017302008
80.434465133187
80.4600752698445
80.5188104718139
80.6025032426269
80.6978060840829
80.7982267010491
80.9021581167561
81.0147740328315
81.1201954787741
81.2156663420053
81.3090303119803
81.3867011602307
81.448875117013
81.4931785543935
81.5035167305914
81.4992479621794
81.5008948964157
81.5144834866882
81.542403571398
81.5958713868549
81.6561796194631
81.684442574132
81.690833790825
81.6923593324176
81.6956178688282
81.6997994851678
81.6860948614989
81.637073415073
81.5477894672414
81.4435924340346
81.3474299790884
81.2622893689676
81.1981694718939
81.1729945959887
81.1787860537463
81.210358029063
81.2750071747218
81.3635205668071
81.4548282634073
81.5444235533805
81.6267268986842
81.7033715978167
81.7702792732654
81.7941233727518
81.7627725639204
81.6901312656687
81.5816177904631
81.4557800612149
81.3446776292442
81.2922443503923
81.3212978954683
81.427312199893
81.5943761158791
81.7992621814232
82.0252940552005
82.2673383784905
82.5134792939587
82.7526011326557
82.9837809077741
83.206592370143
83.4167559407847
83.6124489475106
83.7941452578213
83.9639252252763
84.1221811519972
84.2775814819722
84.4283033029402
84.5718902325907
84.7182675479951
84.8604828570041
85.0063542160424
85.1607681672498
85.296998658065
85.4381216606667
85.5907001393696
85.7408004083049
85.8835253395781
86.0273628693574
86.1755218369509
86.3225798469937
86.4635063359883
86.5952112352938
86.72092457618
86.855394758451
86.9969995559203
87.128589026918
87.2485825618224
87.3659413238343
87.4779785101801
87.5914478853642
87.7091233441562
87.8134971438648
87.898088057443
87.9938584877396
88.1051641155776
88.2052797326013
88.2844073030147
88.3569332879115
88.4330784593535
88.5204801732353
88.5961813297408
88.6555129480716
88.7231839675332
88.798363412438
88.8614348988594
88.9155736688964
88.9850701965409
89.0627775252013
89.1333444106024
89.2057295355379
89.2654960760618
89.3196530463442
89.3879150067551
89.4687645376609
89.5493384577675
89.6226195438069
89.6717474141964
89.7162899610098
89.7719078961428
89.8173971421173
89.8411188994405
89.8681651927808
89.9095627315232
89.9236258685037
89.9140361959134
89.930049224559
89.9604347354717
89.9657133686532
89.9511904836288
89.954084871059
89.9571741158511
89.946966603362
89.9419129882456
89.9274272995262
89.8958201722481
89.8811022743957
89.8759339661745
89.8595626010457
89.8187803132248
89.7855969782176
89.7706844143507
89.7624209349492
89.7566880089336
89.7665804973638
89.7957125252324
89.8127053668454
89.8437040726835
89.8943467512662
89.9474427542569
90.0029022937344
90.0603508285148
90.1438122885098
90.242146584427
90.3201957708966
90.3970386282557
90.4843625951376
90.5476975326823
90.5937005225624
90.6645292403239
90.7515567255842
90.8361214922468
90.8881738329781
90.9277474108329
91.0149358843423
91.10024964453
91.1529431633295
91.1993048294024
91.259255296201
91.3140872723259
91.3831886052517
91.4593900501415
91.4871622366008
91.5003439934639
91.5691644842546
91.6323322116136
91.6713658954864
91.7059900984321
91.7652542997013
91.8149172596104
91.8199939881273
91.8520404602777
91.9034634535618
91.9286318212289
91.9467295646101
92.0016499393638
92.0394525626057
92.0602127431825
92.0895766462248
92.125924310935
92.1553586047726
92.1626569003861
92.1720240318822
92.2083047546902
92.2517583731038
92.2730872425337
92.3115157749007
92.3483679896734
92.3468348330283
92.356754861011
92.4033937586507
92.4238848913079
92.4352724413373
92.4704055055271
92.4784712628977
92.4771330514805
92.5057220653707
92.5287980987642
92.5050909987424
92.508820728375
92.5545247793599
92.5721521770372
92.6022934826033
92.6463684326834
92.6497889796396
92.6256843245406
92.6409097948245
92.6634563457433
92.6548517173085
92.6739218980244
92.7083883870635
92.7191034195171
92.7103695566841
92.741347917728
92.7769511042133
92.7742286910646
92.766444907846
92.7758997880348
92.7864135856268
92.806580385813
92.8198645431787
92.8162731837016
92.7738996327685
92.771286545612
92.8327922406259
92.8597887385807
92.8200703710626
92.7763620528431
92.7990761735203
92.8252131898148
92.8455474152756
92.8588134617802
92.8460858107104
92.8693060178747
92.8804621328917
92.8433073087018
92.8175175233496
92.8355917398785
92.8606095343449
92.87210762167
92.8502835871267
92.8449235573947
92.8503193885158
92.8429057849099
92.8431906798229
92.8547009062404
92.8319478390516
92.8482401898302
92.9133439764591
92.9129884475582
92.8717458759919
92.832031044703
92.8244561909162
92.8511762495441
92.85309559265
92.8555362274748
92.8925627267782
92.87894296523
92.844095099928
92.869008683299
92.8700549334336
92.870018321908
92.8569383238307
92.8084482251222
92.7545274595629
92.7839748819589
92.8007426706246
92.7728446024676
92.7668684993337
92.7785135031414
92.8113651541544
92.7893099751748
92.7145336157073
92.7308401828632
92.778300258699
92.766239827219
92.754962463913
92.7152226039557
92.6652760153358
92.6745379718167
92.6748342275799
92.6205531296582
92.5795624101685
92.6141076231391
92.6156091289832
92.6134861953612
92.6074030209447
92.5806027246931
92.5544368413532
92.5302983246381
92.5276039209477
92.4620969889435
92.4197558673936
92.408754950712
92.3756520085603
92.3349440680383
92.3128404855269
92.2937412962976
92.2945974057446
92.307339763323
92.2561413282592
92.2429280492286
92.297184484464
92.2607901345848
92.1445271525604
92.1035465803101
92.1370752200737
92.0905253919139
92.0291171008657
92.0151640980242
92.0187811384425
92.0350359126999
91.9433885903045
91.8195199123295
91.7622418609116
91.6124703809099
91.5079254832913
91.4136580716184
91.2252819891088
91.064218371904
90.9857809043127
90.8743446367128
90.6959157295803
90.5913291991785
90.4648062800241
90.262790313233
90.1334399974605
90.0263786491951
89.8712408340949
89.7232571035835
89.6312039919058
89.4923170212247
89.3283559316692
89.2173793069786
89.1101272074635
89.0369909838574
89.0074963807257
88.9600511903207
88.9163801021756
88.8939989626788
88.8257170788972
88.6832894459516
88.5539944182081
88.6234627164082
88.6663612645404
88.5485283146231
88.3755901155942
88.4976065980122
88.632431418295
88.6079378738112
88.6316912898619
88.7388365154303
88.8168571637003
88.7190995376664
88.5849967333992
88.6753145878781
88.7286213321124
88.6457271588585
88.5444327765316
88.4244027308232
88.444684601671
88.6506917807286
88.7009545599966
88.6063285066557
88.4225250069687
88.336911942234
88.2738874527412
87.9509020048316
87.6807743440049
87.6115345995609
87.4698621250029
87.0789455360728
86.7719299660262
86.6327970150835
86.3939873243878
86.2094314039607
85.7656721451396
85.2724716553412
85.3087377231895
85.5181324979302
85.646288852196
85.5790468678874
85.3412933003052
84.9590519111819
85.0795538961574
85.3160367913138
85.3719340102207
85.3527933357498
85.5305046814961
85.732133825892
85.6953808253858
85.8950805004856
85.9453191536102
85.950392269226
86.3790514654223
86.3825410520167
86.1713268142404
86.6248830523382
