3596
4000.36533379555
650.420452594757
1
128
2
98.584067088817
98.5911360213887
98.5713621329122
98.5566989979584
98.5729102957834
98.5797404405409
98.5646038607528
98.5447258324718
98.5433245798194
98.5412351617588
98.5572240604615
98.5452542303458
98.5222215294793
98.5355971928428
98.5641161017218
98.5355513794052
98.5347843124817
98.5517928798077
98.5399185040168
98.5128402565474
98.5409448807809
98.5653336033831
98.5539325843842
98.5383345206721
98.5367557390667
98.5412431210543
98.5432995314923
98.5515087827893
98.5822872739363
98.5585578578236
98.5161879021954
98.4955292847527
98.505261384002
98.5435984498175
98.5687938594976
98.56993323107
98.637339069869
98.6097405616793
98.5208832080068
98.5057135959982
98.519420434067
98.5242160189663
98.5240172094256
98.480829776444
98.4656608256053
98.5409165210014
98.5879638959345
98.5446029673518
98.5411553370814
98.6351635446948
98.6492017125443
98.5939167110204
98.5108130172945
98.3827668732407
98.3750105632734
98.4442264628654
98.6068598102575
98.7292523256457
98.5439952801954
98.2798006660261
98.2549238262625
98.3803066932214
98.4426090043359
98.4789658984024
98.5375839514968
98.5853498635646
98.6160184298245
98.6497737078627
98.766364086913
98.7261225602608
98.4998543694896
98.3865468654231
98.4038649817224
98.3502448956227
98.3592983691001
98.5608590735353
98.7340141487128
98.6537677061903
98.4777059281182
98.3143457110849
98.4070542098678
98.6608616374223
98.6216852354585
98.4203661502533
98.5755071112625
98.6843590789976
98.3922860513025
98.1464410839261
98.2470637485386
98.3816370805004
98.4436774575255
98.4949153251811
98.5457646065398
98.5234161715504
98.524578178866
98.573758530124
98.6900178960179
98.8122696235573
98.986011494879
98.7496355610751
98.5187986473078
98.4824542838236
98.2416920628097
98.3014779462058
98.4049204831152
98.0792273124483
97.7798210576716
97.9163784798587
98.168570702868
98.3139239690827
98.3969850850582
98.6257109273685
98.9980999886798
98.818457135264
98.2347057659773
98.033857212699
98.2331907764348
98.6136452577196
99.0709166022861
98.840623795457
98.2639785188571
98.0920277515121
98.1885552174847
98.5247798999763
98.9113478631692
98.5686064309953
98.0071721449262
97.9784882663765
98.1846165721594
98.3703023004907
98.8122982390986
98.902570185928
98.3842912569207
98.1598921372309
98.5816194704736
99.1586093095321
99.0121590994248
98.1098852768503
97.6687744056043
97.9907088890318
98.6211774086771
98.7618231455268
98.2965847801093
98.1914264877295
98.4293873761334
98.2459544857898
98.0637240454509
98.1532472845887
98.473207137452
98.6579688378651
98.5123667107063
98.7828629508002
99.5033529165833
99.4602951619825
98.8792516328011
98.1105386372654
97.4855440782832
97.502975087482
97.7843360761416
97.981610395827
98.1065906710958
98.2936589815745
98.5174362107505
98.8317195213511
98.7542848615075
98.5367346176673
98.6818656495025
98.7224390887646
98.5025384745774
98.6924778953453
98.8244781103679
98.1611050275139
98.0468687822186
98.331842099334
98.1043866964453
97.9852564407735
98.4981749203012
98.6173786187469
98.2416925241541
98.0790897144729
98.3352620065614
98.6815811570021
98.7403078138576
98.4806144460445
98.3399318642515
98.3910949932623
98.7343313217099
99.2508591124619
99.3757692791288
98.5747887879481
97.8042247005846
97.7852394702431
98.4265075761546
99.1080382371058
98.7438396631167
97.9959738910548
97.9119382080558
98.1576167348123
98.3252228603834
98.4404464138729
98.5500279068665
98.6161433516972
99.0560161563376
99.3566317089658
98.767289401834
98.1522645259379
98.2154735739596
98.5816732878415
99.0708838108806
99.3754516385761
98.6479881828616
97.8452649409558
97.8964195948086
98.3495533483999
98.6769321387209
98.548677517516
98.2631810609214
98.2138234513343
98.3914945393196
98.5531727599701
98.6365376042574
98.698922390337
98.7300995796819
98.7302772990063
98.7179097331104
98.7415106968151
98.8315965180443
98.8074135684953
98.635545293132
98.566376196775
98.5624252455978
98.7088513926491
99.0802349825218
99.0251170068334
98.6204806182463
98.435392154401
98.4690010428285
98.5363826973629
98.6077848445401
98.6327290542467
98.6204319348408
98.7046563963559
99.0480481429614
99.1372709883915
98.6203562624404
98.2689766399827
98.4785642549716
98.9163704337928
98.7617449071997
98.3987582300556
98.373875009085
98.5173838444354
98.6449323826584
99.0248907476496
99.1327884407381
98.6028967405809
98.3763732880796
98.6378517622919
98.5675399198526
98.3768714178337
98.5302891445544
99.1616259892213
99.3664079099045
98.6799217208076
98.6409897674614
98.8643454540644
98.2262984335499
97.682822327464
97.9202400867273
98.937429372554
99.7532901845262
98.8475606602304
97.4532760754162
97.6904544668454
98.1148957592189
98.1523009809531
98.3415207322266
98.5482254434811
98.8292442034921
98.9998001701583
99.117454786433
98.4625661961435
97.8144790788468
98.3281178765452
98.4284596049708
97.9302361081119
97.7996982434326
98.1014918154023
98.5478583500128
98.8820598968731
98.8018173810254
98.5414771412045
98.282290600516
98.5537961102648
98.7578983833482
98.3701798853224
98.283286167409
98.5774365278619
98.6023279707527
98.445576609546
98.4509246359637
98.5907372950064
98.7365490371864
98.7657055987618
99.1128732112254
99.3494506030048
98.8617349658326
98.5860708628944
98.6437470914378
98.3282593137984
98.0811156421969
98.2556030427255
98.5131730347347
98.6060854718466
98.7031251679673
99.0261543800068
99.2266613738019
98.7968021631842
98.4132717409716
98.4155666895414
98.6101310231501
98.7480887768481
98.7827117911348
98.7800341411032
98.812486168324
98.7452862992271
98.8855657549723
99.2343328382016
98.9860150949354
98.7744256164979
99.2190824350482
98.9491207604536
98.1432942609887
97.9785095574222
98.287609111826
98.4554938276492
98.5066544742083
98.5499545144061
98.6524729097512
98.9316873148231
99.0304170682453
98.6990228518822
98.657636641311
99.2095939832523
99.6923565767392
99.1764970610944
97.9579047768678
97.5009871576383
98.101971234831
99.0102920443264
99.0560740114419
98.6460131456317
98.1645569601646
97.8796742766772
97.9996497853132
98.2115102393931
98.4506409028072
98.5689852367236
98.6803612716947
98.713171155702
98.7757636657515
98.7863603476742
98.739789280611
98.7498269691542
99.1434851971183
99.2759527322745
98.7647923564717
98.3165498606065
98.3083258225171
98.6673706051005
99.1744128055869
99.2945247332913
99.048557830179
98.5446410092398
98.4841052533115
98.2970545109037
97.8230871971922
97.6752903121474
97.897187525773
98.2919422475667
98.4653394824427
98.4311302215294
98.4377967543475
98.511480668554
98.6071897255967
98.599066498127
98.5375198952735
98.5705987576635
98.8091924618036
98.9622374346951
98.6596710352958
98.3948928187553
98.5281186701376
99.0596842627498
99.4555199784099
99.0038344625699
97.9927829953284
97.7938691979287
97.8325073798368
97.9729981406838
98.1540708875798
98.3723350426614
98.5341239405645
98.6968104256334
98.9153544408527
98.7258977995517
98.5103421029037
98.2773153374487
98.0998558808801
98.2647754650917
98.3591518377449
98.5994547564316
98.5552361713678
98.021370715025
98.0326874115436
98.5767524250087
98.4634884243272
98.2104592455548
98.1432825597765
97.8941520279608
97.9066041928045
98.0991063708587
98.2761677216797
98.3548153340467
98.4889887870838
98.4071594186919
98.2837948293948
98.3302021755889
98.3378025002463
98.332931161476
98.4699550846177
98.400649743853
98.2969960882868
98.2291011754084
98.1057065831303
98.0764252241398
98.2852304460273
98.6836089540003
98.5805670193665
98.386226963843
98.1227932293412
97.5877610688472
97.5981354290177
97.8383862764438
97.9540038849246
98.0446672687865
98.2223046654088
98.315014513052
98.2466877841916
98.1655812195723
98.1625000341636
98.1004315676651
98.1427038763815
98.179168288753
98.1532764492962
98.1207830651253
98.1570235304644
98.1636628736103
98.2332980633823
98.5175153065059
98.4639116201128
98.3112389279796
98.017963910748
97.5845467639413
97.5196342631134
97.6108067315112
97.7310434732086
97.783911496375
97.9133196902682
97.8942433334246
97.836402658801
97.8403498202444
97.8911447302035
97.9012355384111
97.9545666673365
97.9903821662836
98.0524662739972
98.0203835087296
97.8939329106659
97.8376501703359
97.8611612214576
97.9249402867336
98.0230608720156
97.9416114807244
97.8150353453991
97.6992899288976
97.6341985455437
97.6167250937046
97.6686892035557
97.7307058828051
97.7267062990236
97.7264553114042
97.74290637671
97.8457514280845
97.8718305752741
97.7187737102409
97.6095401545171
97.6334176002424
97.7401558418596
97.8055872479697
97.7116641062256
97.6562115624503
97.6960222592714
97.6632012349061
97.5908189254543
97.5308833209168
97.4478041574395
97.4846960792493
97.5578493483637
97.4224758167516
97.3668052378432
97.4270778924096
97.4651293033576
97.4531131336553
97.5130219159487
97.5162971502504
97.476263606057
97.4628634834464
97.5060402289739
97.4844903775426
97.4604836052978
97.4863200380116
97.5380169095841
97.4695716332363
97.3276855008491
97.2559813293526
97.2433488889249
97.2758427281106
97.3299149658053
97.3955352084598
97.2991358637872
97.1170888897855
97.0381368197388
97.0574411853927
97.1004096565354
97.1633101664752
97.249614467676
97.2068495431641
97.1763437706237
97.1691948686874
97.1072364501917
97.0732037796862
97.0967836299255
97.0931911466501
97.0548055440976
97.0398357432168
97.0023539274127
96.9548261136943
96.9716358263349
96.9709157735648
96.90903238131
96.9175295413746
96.9757688782219
96.8435482467047
96.7651640238686
96.7936592768815
96.8283072717837
96.7933981768661
96.7866646849323
96.8339318035853
96.8288937968272
96.7346641512834
96.6966658119129
96.7050089155494
96.7065993192897
96.6672039899622
96.6652247287749
96.6389953441219
96.6342238556145
96.6257745036524
96.5756305312353
96.5086108041709
96.516188274423
96.5157782777415
96.4604547969656
96.4259310011159
96.4547443218813
96.4214317538633
96.3782905171203
96.3857864213366
96.3441293554415
96.2784990200202
96.2627205158849
96.2341208215517
96.2097075686173
96.1597874027111
96.1014310413251
96.1452652929491
96.2257856127247
96.2665871628187
96.1954515032526
96.0209571544604
95.9608675793583
95.9820837977505
96.0423499713712
96.0009951729676
95.8999318490638
95.8725768149309
95.892864833344
95.9158008744117
95.9076092092495
95.8148860922457
95.8012242417246
95.864977783878
95.8263160947247
95.7799234897614
95.7709979649463
95.7096224802946
95.6718712007578
95.6613801782824
95.6499631834041
95.6093960775113
95.5810780663806
95.5328228218038
95.5052247590056
95.5087446715786
95.4768810386197
95.4162206027743
95.3796077675863
95.3533173576807
95.327241290775
95.2804559348052
95.2138095195185
95.1623759734417
95.1545526211393
95.1285473861157
95.105386679737
95.0881642394692
95.0546392064809
95.0306932824238
95.0274974718657
94.9913531582985
94.9442161205154
94.9217822314591
94.8956421195253
94.8454008361321
94.8210445185524
94.7873123333504
94.7732253990586
94.7685116829085
94.7327679170422
94.7109707749871
94.7196591638192
94.7544428839253
94.6702930040148
94.5649683908566
94.5361753573201
94.568217131368
94.6134755342946
94.5667242321442
94.5264274430291
94.5159059742956
94.5656739575372
94.5884788254522
94.5444920285263
94.4663583618717
94.4238153070891
94.3809684417166
94.3339653927942
94.3231078920031
94.3389403753995
94.3534388267189
94.3650490304626
94.3588552060366
94.3555830677963
94.308198875025
94.2362179762805
94.1878780412676
94.1756891574623
94.1737650203366
94.1676280125901
94.1162756849321
94.0698883903151
94.055563667026
94.0507816502687
94.0309196445358
93.9668810353998
93.8843613609229
93.8709657184043
93.8621988463063
93.8233140876256
93.7764230966568
93.7320328379893
93.7036818071647
93.6608981709547
93.6268798823138
93.5930370285821
93.5853567593073
93.5876807506499
93.5793548460655
93.5150333025481
93.4647572401479
93.4136336064451
93.3458017943267
93.3141354667268
93.2642802057027
93.2049862143867
93.1640999841166
93.1246672370088
93.0884133834484
93.0466176534149
93.0125475631196
93.0160192976346
92.9481349183704
92.8076150408603
92.7197334165004
92.711363474315
92.705323912344
92.6668132702872
92.6048567662826
92.5657493707664
92.5458190972205
92.5424354498218
92.490551985227
92.4825218222422
92.5311222942029
92.5665162063163
92.5757963590204
92.5591784006063
92.5083476816247
92.4719636469079
92.5040407077236
92.574901244141
92.5492778543557
92.5408962447113
92.6017702451709
92.6433590336983
92.6377100170046
92.6503727058803
92.6586904732429
92.6693627065244
92.6930914085807
92.7176291492623
92.718812438637
92.7192080062684
92.746543784095
92.7360458318642
92.6801371681435
92.6751601801597
92.6731381616995
92.6667928453293
92.664839156507
92.6521483074915
92.6229714559845
92.6271203080805
92.6072277370224
92.5903135043979
92.5633623898103
92.5530083669672
92.5629208053401
92.5583511921356
92.5657878807197
92.5633831691164
92.5280523415824
92.4856538669768
92.4733807283607
92.5270746837674
92.5243265034714
92.4561164485919
92.4655308230123
92.4765186236188
92.460111656037
92.4904929656836
92.4761413121795
92.4723271260064
92.452352462621
92.4335054622928
92.4246347624597
92.4401733440584
92.4493130620653
92.4220403479384
92.4038341915924
92.3923531930743
92.3986896269965
92.4257118507329
92.4454643743107
92.4319695301293
92.4058250822615
92.374295429204
92.3608290011375
92.3697314855977
92.373955673531
92.3559461037665
92.3561888823997
92.4078876622282
92.4098760044912
92.3912704813157
92.4190153464306
92.4291161675516
92.4208791930213
92.4408570957106
92.4597007297814
92.4937786112002
92.5570130244433
92.6052873952817
92.59269765414
92.6001330372368
92.6241309415672
92.6347449438869
92.6626983607291
92.7045588800263
92.7329736356191
92.7421413010192
92.7693558458944
92.8155160534338
92.8283395314138
92.8662270605913
92.9023872775507
92.896786224334
92.9108127456171
92.9503861842132
92.9748930323034
93.0079689550293
93.0439808127582
93.0455284485919
93.0746580111931
93.1317623101928
93.1402053421582
93.1587254485052
93.2088459183548
93.230380986996
93.2494446363592
93.254411388888
93.2283860171278
93.2289389872725
93.2706614339692
93.3013546160264
93.3143094292822
93.3515139732286
93.3610610981308
93.3648696081383
93.377869677776
93.3854036607736
93.4431835062734
93.5108364782413
93.5237997445676
93.5092118669838
93.4919984725847
93.4998569991002
93.5291206055638
93.5827186236019
93.5842326108089
93.5807879050835
93.5828160199743
93.6341241873781
93.682507952052
93.7014483886633
93.6878055611525
93.7120233244567
93.7639851273472
93.7731850634209
93.7899415725645
93.84474468956
93.8750828952464
93.8447501697321
93.8377557476024
93.873511935727
93.9025404850183
93.9209864130653
93.9393556727245
93.9233353377984
93.9059382720869
93.9658160582907
94.0185031792047
94.0390614914371
94.037597732611
94.0466749744049
94.0690755088235
94.0994559139902
94.1158873579293
94.1281845522014
94.1445793202264
94.1350021430133
94.1434747179431
94.1988779264488
94.2179921279862
94.2062791123956
94.2332399151823
94.27074886374
94.2488934977205
94.254991210853
94.3023403351591
94.3065524533946
94.2973665865144
94.3324350853585
94.3832865843696
94.3974789938113
94.4144858754543
94.403012811674
94.4256256207564
94.4866924730348
94.5258304543209
94.5274886405388
94.5275192197523
94.546179241621
94.5508273061277
94.5466838529808
94.5619650380355
94.5780629231289
94.6046277528517
94.6427862573684
94.6368919914489
94.640302140012
94.6606718861451
94.6604480101073
94.6782926476956
94.7250459867574
94.7429756843358
94.7444119946615
94.7356948209453
94.7077021362859
94.7180319158767
94.7583145264459
94.7900508509768
94.7929853249739
94.7855067714389
94.8233098269223
94.864475051289
94.8773467040484
94.8697031994463
94.8944483879399
94.9427072722351
94.9547960549015
94.9453469005261
94.9432837408024
94.9551773006227
94.9812296205426
95.0046843863177
95.0043508030435
94.9957769374233
95.0227799357808
95.0601226959138
95.0543932224278
95.0356829515748
95.0472334186194
95.0874433857339
95.091904356521
95.0951438909072
95.1341503045791
95.1492774238836
95.1383054077486
95.1512600184575
95.1750820576622
95.1699904147739
95.1927719387207
95.2401416587599
95.2697443300392
95.2258024042481
95.1753758612485
95.1986463902035
95.2464042318667
95.2908442554203
95.3306044559776
95.3271750105678
95.3123263872665
95.3181379046485
95.3365045278955
95.3570644357718
95.3873065790639
95.4038541686411
95.3994358213749
95.3927908944465
95.3978689668586
95.4284361032016
95.4560571230994
95.4650920894464
95.4698897081555
95.482240842289
95.4922416905664
95.4954612036177
95.4897780342787
95.4983970188457
95.5494487332602
95.6073984004432
95.6138595075942
95.6043484513681
95.5999776235136
95.5641931229158
95.5286641144459
95.5666926386731
95.638979536984
95.6696394829562
95.6484484311321
95.6607901682408
95.6973518591034
95.6865482913065
95.6650049471275
95.6686254742436
95.6878599357576
95.7181510838974
95.7353362567976
95.7495591503299
95.7550866075902
95.750050278884
95.7774144715931
95.7943126922849
95.7798088820262
95.8135608084641
95.8400213540919
95.8365701792989
95.8495839851318
95.8421055098277
95.8142746556745
95.8175770147895
95.8462272332377
95.881273390905
95.9094376718665
95.928858770379
95.936432557953
95.9398101116796
95.9417182407199
95.9611037258217
95.9861907390149
95.9992609135696
95.9967477650051
95.9917726070125
96.0075615282324
96.0499142246286
96.0770756251626
96.0422651448482
96.0291648694671
96.0502509936783
96.036365396812
96.0365070008681
96.096069278441
96.1078210589525
96.0944170437452
96.1119449382821
96.1235864420373
96.1179685637543
96.1089831645795
96.1126580371598
96.1436929573842
96.1649029175763
96.1480210150243
96.1611140179876
96.1799563246115
96.1598172595854
96.1484071899544
96.1746143975667
96.2040514543861
96.2194695711317
96.237790833522
96.2552613502988
96.2713482522342
96.2719328071171
96.2857756899076
96.3048550622462
96.3238280286306
96.3278379990105
96.308881650837
96.3037346703143
96.3509190151248
96.3640091777098
96.3334453856636
96.3619738428217
96.4048029750298
96.3660689658265
96.3540686974985
96.382849707151
96.372279839186
96.3667828315535
96.3977139430125
96.4164573092401
96.4251541405358
96.4357950622655
96.4333166967913
96.432982026435
96.4473008295308
96.4578630625587
96.4550678441906
96.4648545747991
96.4822734753486
96.5078975504817
96.5053914496411
96.4960093552813
96.5130638198296
96.507929822228
96.5027123969264
96.5261174843521
96.5347581909591
96.545876086165
96.5592984378022
96.5307135919651
96.5109984422803
96.5348526247088
96.5540731691112
96.5530573768592
96.5683591212741
96.5988054676032
96.609459652391
96.5887320535589
96.5734830500844
96.5650307129747
96.5519480417546
96.5406714139852
96.5330478423327
96.5374715346323
96.5375575660224
96.5156467488519
96.4840485066761
96.4601238506042
96.4643702324203
96.4677537747772
96.4476605190007
96.4389568377166
96.4424683654677
96.4093888454459
96.3792919884341
96.4005440750689
96.4265972300543
96.4287885373257
96.4072258772619
96.3868960879675
96.3783275867523
96.3950250456334
96.4003666794373
96.4077546458277
96.3983256940885
96.3639854612743
96.3557493861122
96.3651887301514
96.347714548302
96.3210098799285
96.2962655658517
96.2666007743033
96.2442837371984
96.2451193238843
96.247579685473
96.2200581395042
96.1906687459481
96.1775887720974
96.1565534218314
96.1328070622658
96.1128762438895
96.1005403896445
96.0908862791274
96.0719319741786
96.0617432237297
96.0718514329377
96.082559980648
96.0956248463062
96.0953272775601
96.0733906474849
96.0665420256317
96.0595234145822
96.0763318201536
96.0972646374278
96.0676278956922
96.038301540047
96.0292936181619
96.025443606674
95.9996067020561
95.9813292026989
95.9665293671857
95.9574630194484
95.9580160338038
95.9346968190399
95.8822944176094
95.8338758045345
95.8098533361635
95.7590664916129
95.7331625572622
95.6926464725599
95.6611630299272
95.6353296117863
95.5707830585034
95.5238410181942
95.4832106097736
95.4385675714749
95.3796029892731
95.3336733826158
95.3312267446577
95.3260433663771
95.2696950461906
95.2022676294888
95.1794029763874
95.1602790339147
95.1267030438038
95.0823403944853
95.0472664398206
95.043730666354
95.0488862985552
95.0197895432191
94.9877619083231
95.0035768200791
95.010853757303
94.9997994767461
95.0112613776539
95.0074622608465
94.9892602310813
95.0066952597722
95.0161954467134
95.0190696112581
95.0383195726605
95.0415366398915
95.034703147758
95.0524858958208
95.0840630625214
95.0881734233515
95.0754444289229
95.0867177936003
95.1138889383517
95.1350231588952
95.1340707699347
95.1332102342192
95.1345908560384
95.1512339549451
95.159282839278
95.1538644089137
95.1490872511747
95.1382693408868
95.1510355073999
95.179182094926
95.1924655949774
95.1699704728927
95.1599822935529
95.1591893092667
95.1532955791594
95.1552536042635
95.1913309793221
95.2226002341292
95.2127519896021
95.2087005844188
95.2130085488427
95.2467250008313
95.256262403605
95.2589280279858
95.2878657878298
95.3016968345394
95.2969085940305
95.3026326905329
95.319748164165
95.3339769573691
95.3516541945692
95.3800829685877
95.3913120315403
95.3889834543435
95.4028944009024
95.4341976492924
95.4681652447625
95.468392727833
95.4786685466564
95.5317782783806
95.5495864333467
95.5490096978588
95.5711273142375
95.6007002686896
95.6172487233983
95.6269268538153
95.6356927022772
95.6382697608918
95.6559442248295
95.68237372562
95.6937290227037
95.6906857832503
95.7093526679551
95.7400127846713
95.7530328068029
95.7736163277917
95.7818313610883
95.7893700125145
95.7878305544488
95.8019367976057
95.8342445605013
95.8453782503536
95.8340435697788
95.8453695592542
95.872369333904
95.8871086443191
95.912296468146
95.9423560564418
95.95121992299
95.9501259657273
95.9442543583013
95.9392812504165
95.9481734560934
95.9735355480522
96.0019688410386
96.0101426030032
96.0032559312796
96.0098801209315
95.9905163209831
95.9953135481899
96.0438973181674
96.0706019114812
96.0671420193089
96.0742080537768
96.0726455646417
96.0650619980769
96.0633146323932
96.081730805415
96.1037216788834
96.1053984028621
96.1225732292672
96.1339405151439
96.1094909654966
96.1168356526928
96.1350604244156
96.1408261465356
96.1380762833318
96.1564086687156
96.1666455523493
96.1782469360865
96.1951332674319
96.1866296982784
96.1777023433678
96.1798496435385
96.1794389245434
96.1847642277108
96.2169097215916
96.2324777741292
96.2338303645381
96.2281339266715
96.1978716277366
96.1823120415331
96.1825192485615
96.1939015874168
96.2113265363226
96.2207714088512
96.2261671544414
96.238773240987
96.2469941127745
96.2482082049861
96.2351548931596
96.2272282392417
96.2418548144252
96.2658088643848
96.2736322390384
96.2679829889871
96.2514523201076
96.2552948361934
96.2641790886429
96.2779596038521
96.2735555000802
96.2658256830374
96.2639084382425
96.2689181790205
96.2584883687307
96.270574447416
96.2812777315518
96.2794385357169
96.2832649186098
96.2919688666559
96.296479624195
96.301446395325
96.3060886393771
96.2913526472768
96.2913490178779
96.2967279220483
96.2902791296801
96.3015573378728
96.2981872523403
96.2900712221602
96.2877303120672
96.297620369268
96.3004950384336
96.305289785484
96.2973250669517
96.2888941002761
96.281755359567
96.26876840617
96.2766251861634
96.287306307415
96.2957975556471
96.3173679253857
96.3260457807974
96.3248440525357
96.3303021777005
96.3261753249096
96.3075570894328
96.313366983097
96.3235842583338
96.3239362343735
96.304306042976
96.3073699085323
96.3294486233156
96.3379151642577
96.3357941574838
96.3479984057758
96.3539345947068
96.3449443415376
96.3301270700567
96.3291396951171
96.3371761054068
96.3355740976238
96.3424658357516
96.37184435731
96.3730727212642
96.3570718559263
96.3574709975026
96.3655839774381
96.3613695259993
96.3812006880817
96.3947263430469
96.3882736329116
96.387948633839
96.3965653198351
96.3920115758485
96.3875316066272
96.3988011155219
96.3992098533292
96.4050432755792
96.4212646386258
96.4255440693416
96.4366726648773
96.445738610929
96.4527305835142
96.4441857227846
96.4429660717921
96.4517383638728
96.4582750943348
96.443571163192
96.4274913375483
96.4314940461478
96.4457947533483
96.4386957713291
96.4488293548695
96.471608178203
96.4655636776829
96.448308106501
96.4492188205209
96.4637529839525
96.4682849395973
96.4821195946379
96.5067033332123
96.5010900568655
96.4933870146355
96.4805257507081
96.4810360333138
96.4870909624207
96.4996226789304
96.5111532650799
96.5145177818597
96.5019192617608
96.5133592131559
96.5183347409778
96.4941036927664
96.5053461197373
96.5201762630285
96.4977481407142
96.4939153071116
96.4997173736742
96.4956320912052
96.5010163004997
96.5437194697284
96.5592745991353
96.5579942635337
96.5660209497366
96.5676348468863
96.5640849632274
96.5792320705268
96.5942285895961
96.6028514080988
96.5968092254229
96.5752321535562
96.5652637169097
96.5780504678591
96.579907869421
96.5840567419388
96.6141952407871
96.6479278296286
96.6284050612002
96.588537578268
96.6080615442455
96.6460731399607
96.641172158844
96.6519971349356
96.6551395444152
96.6614849273373
96.6728693695326
96.6683038904364
96.6578556428366
96.6834368891752
96.7103032660805
96.6955854899639
96.6716359539678
96.6808364120688
96.7014429470243
96.7283612966385
96.7322631269147
96.7056018989786
96.6765227869208
96.6949381309839
96.7141067663408
96.7417961728936
96.7406132315286
96.7303770692913
96.7373466106797
96.7440686274449
96.7561077802862
96.7482487181575
96.72425413883
96.7326742515285
96.7399913103856
96.7369390237339
96.7495378821485
96.7881109470729
96.7956120687442
96.8053156839653
96.8065851104615
96.7952436024268
96.7957874256951
96.8297948956267
96.8194672398522
96.7814164576181
96.7862721484519
96.8259080101529
96.8345185403589
96.8343030479843
96.8454026062406
96.8570716163208
96.8343900022877
96.8342712817945
96.8452033581709
96.8748680714874
96.8806038747056
96.859103857555
96.8638956813112
96.8718809649816
96.8564239356848
96.8690852805461
96.8851192021596
96.895248816817
96.8739720841159
96.8842101731446
96.9113911134209
96.9134844049925
96.8916786078672
96.9188998544522
96.934362867274
96.9042708080507
96.8971145727838
96.9428957437082
96.9521958209788
96.9438969555011
96.9507889996306
96.9460110319619
96.9176685244396
96.95706850386
96.9881755530529
96.9428248670687
96.9065103036087
96.9362818122268
96.9382440164663
96.9287299603603
96.9247179914378
96.9357686581209
96.9444790964154
96.9208164265453
96.8864504295605
96.9077883932401
96.9343693090026
96.9518843838818
96.9681332507139
96.9916749716731
96.9835238512369
97.0016893869553
96.9776060394591
96.9421326333618
96.9404506028322
96.9705072168235
96.9721113245835
96.9394322693067
96.9380673472494
96.9891903261736
96.9694017705161
96.9642310760316
96.9803776332594
96.982894062779
96.9870148255311
96.9476659695557
96.9014663393242
96.9313520034487
96.9646298567749
96.9932593707416
96.9985015243295
96.9911475011367
96.9558395502732
96.9589015886908
96.9394897738761
96.9165411616633
96.9244364179676
96.9429626146961
96.9560386434923
97.0138753365785
97.0372979696308
97.0292578912971
97.0151758412557
96.9918073224242
96.9725056098676
96.9928995239338
96.9990227719346
96.9961182676308
96.9642777254844
96.9553725247152
96.9666009669632
96.9834329209197
96.9842553351545
97.0095879418242
97.0002287860149
96.9923191158815
96.9781350523926
96.9720536617138
96.9704665309356
96.9519268076503
96.9307150094941
96.9659106686677
96.996179107976
97.0066472399278
96.995932897158
97.0256620304484
97.0234425970569
97.000412094962
96.9829854116612
96.990616575392
97.003116368545
97.0308385371202
97.0167247743653
97.0235084139987
97.0163580198677
97.0235130459098
97.0530793502111
97.0584273543008
97.0289410043269
97.0234968828404
97.0129704245413
97.0114647333675
97.0085112811969
97.0313905451691
97.0385436507099
97.0343924800539
97.0243296386315
97.033156286874
97.0207894424347
97.0136910657945
96.9924380249722
96.9904604461545
96.993856396742
97.0052044736869
96.9910747341593
97.0119063603891
97.0385219224121
97.0558856741519
97.0558860572148
97.0660161580144
97.0553343662069
97.0588603296934
97.0495996240644
97.059559331751
97.0645641083062
97.0720424853257
97.0405832132566
97.0363031409302
97.0394050523101
97.0658066876881
97.080028010521
97.0784759410217
97.0492289075954
97.0581740061413
97.0555536985799
97.0566907412011
97.0647892779904
97.0552312848747
97.0555357116841
97.0951882113251
97.0766534543722
97.0543737221883
97.0562038891419
97.0840148463957
97.0595469877821
97.065348422865
97.0676024215776
97.0881088466596
97.0977883204941
97.1050426623452
97.1014042342507
97.1044856594384
97.0819769279849
97.1016659271997
97.1103519557304
97.1301740077084
97.1296977398355
97.1143175652548
97.0829088514566
97.0960626332728
97.1038783030382
97.1225709279533
97.1007526644307
97.0951126376988
97.086280345481
97.0799680871302
97.0828678992334
97.1341799988707
97.1333012864193
97.1271453916553
97.1104339207655
97.1176072355772
97.1119227139236
97.1281948136488
97.1228659404315
97.0976073978489
97.0608342187507
97.0729852624286
97.0671531212081
97.0865446256122
97.1192394729804
97.1365044328418
97.0805904319787
97.098020431509
97.1180418203437
97.1051387044994
97.0706792931406
97.0802702540939
97.0875770265668
97.1167398273318
97.1352437207386
97.1290371116271
97.0824148279341
97.0929528843317
97.117536182154
97.1405296972538
97.111129809184
97.0877975902328
97.0571944781469
97.075634628737
97.0657926823229
97.098197165522
97.1139679063453
97.0947123780578
97.0328632500964
97.0334768252065
97.0660937726627
97.130846022353
97.135762457581
97.1295227692078
97.1038682399228
97.086496574098
97.052771617175
97.0913839923261
97.1080402581711
97.1297292370323
97.1248826409513
97.1167667968408
97.0811449622089
97.1643892727611
97.2100475481647
97.2012816065164
97.1066859500668
97.0359962725757
96.9857671444755
97.1218322421886
97.2098861178831
97.1374212878551
96.9928116783404
97.1449525934397
97.243731829341
97.0916030949767
97.0509015074486
97.2326624335125
97.0952190105315
97.0887192811748
97.1117272304142
97.0798204251567
97.0337044321254
97.0112624686172
96.9978421687841
96.9428089732385
96.8388932158303
96.9374764109537
97.0306235537033
97.1834861215526
97.2270295761267
97.2425306906822
97.1137526550272
97.1600313073645
97.1182210863435
97.167010486625
97.0963245801671
97.1431390662778
97.0765902466123
97.1387673625833
97.1005355582658
97.1805849523518
97.0865111818977
97.1721980801474
97.0401148465428
97.0795583477539
97.0402654283267
97.2320548493241
97.1227007080391
97.1314402332716
96.9169730671005
96.9973427316733
96.9755242402771
97.125805066768
96.9947197877771
97.0267947894065
97.0262583381725
97.1317519254309
97.0075299742576
96.9246196939546
97.0499180877933
97.0263128248885
97.0601045683059
97.002071143829
97.1948683454863
96.9675332044467
97.1031725109889
97.0146488802674
97.1421137384342
97.0094322395722
97.1129127349787
97.0304252015702
97.0848494560185
97.0707745632873
97.031763268595
97.1006808882608
97.1077042194532
97.1366827253379
97.1591178271299
97.1566500138863
97.2116543953327
97.1568969845997
97.2125753444979
97.1864592782224
97.2162919247226
97.1921930072586
97.2132009980971
97.1915778332594
97.2116393559312
97.2556843670646
97.3036545980916
97.2714840402569
97.2744890240128
97.2382382903946
97.2701659246731
97.3208390420672
97.3847190065213
97.3761840212236
97.4039843479535
97.3850300466929
97.3660086818278
97.3381438994121
97.4220781602315
97.4512596828278
97.4519605547788
97.4310231118443
97.4834791255056
97.4985872581042
97.5274681131373
97.4864439233826
97.4891754325103
97.4668874481168
97.4911656133541
97.5538945633683
97.582899657356
97.517894084329
97.5923284197926
97.5955711654868
97.5360985381141
97.5173197982599
97.6003117371136
97.6059141611469
97.6102679458907
97.5905957329335
97.6447323727027
97.6641247959708
97.6688390787469
97.6470494653408
97.6298654687607
97.5820372801975
97.6369409614808
97.7157443025582
97.8152060840842
97.8046898322813
97.7345724543728
97.6559144559231
97.7088970316868
97.7188050562719
97.7403366216949
97.7770038493709
97.8142095272512
97.7494978328306
97.7490483880284
97.7433390363714
97.7164094175694
97.6963713565183
97.7106173987101
97.7242421481011
97.7930652853001
97.8119902697246
97.8454004583742
97.8041585328099
97.7519853283195
97.7650483327425
97.9017314458328
97.9336766003641
97.8594887454151
97.859273665821
97.9593011174242
97.9716244230248
97.9661930690263
97.889477135936
97.8473015618942
97.8252308907954
97.8844311800808
97.9201472698671
97.9253702073972
97.9231999895507
97.9076442108864
97.8187238897385
97.8188654323727
97.8876112024239
97.9483128081609
97.8809829453577
97.8656288542143
97.9318581623047
98.0207473164679
97.9775795561655
97.953967054815
97.9483828028308
97.9046213198789
97.9321673370952
98.1014275868192
98.1375724994083
98.08621646049
98.0574743954577
98.0200752466866
98.0656593679227
98.1867560051668
98.1584718014151
98.0692893579226
98.0184491698256
98.0968946804933
98.1472239064956
98.0646196218143
97.9352930133932
97.9541184101721
98.0325293859356
98.1582695176725
98.1726442329102
98.2008667862192
98.2487347289228
98.1732418973795
98.0946609358754
98.1878582551197
98.2713085552863
98.4053586666044
98.4217183901557
98.334761403677
98.2732405371592
98.2243077281248
98.2248359175299
98.3127176433188
98.3343048859062
98.2996605696483
98.2192922753345
98.2547148353202
98.3022865990652
98.4258822197413
98.4761720920243
98.3684536163839
98.4001744078019
98.5017452015685
98.444606159293
98.47849446721
98.5846968970531
98.6086915154031
98.5959636398667
98.7121406136437
98.8008078189447
98.7807168988598
98.7442350128359
98.818411045292
98.8777345848983
98.7776200514866
98.6859755052613
98.6976573045421
98.6485113308607
98.5809874520384
98.4096616288672
98.2285701727431
98.1360696337446
98.0954285820297
97.9897214564231
98.0897334619181
98.290230105082
98.2418985531644
98.1298134253106
98.1592360775145
98.1019569691451
97.9444533254291
97.8565319049709
97.8422155230218
97.8583256558538
97.8061252904235
97.7035441411821
97.7822562377679
97.8219381651002
97.7694264327292
97.7013652502664
97.6479270876446
97.6287808817735
97.6869367850781
97.7349051999504
97.6842858991835
97.6144779151035
97.5890442194099
97.5880891677712
97.5655474122026
97.5298994704211
97.5386354512704
97.5139028108042
97.4668633492753
97.4450877154044
97.4190501432433
97.4190293731479
97.4454019726794
97.442182513136
97.4555965270698
97.4637958621513
97.4596388389735
97.4363583416608
97.3662157216882
97.3496739018379
97.4082494483539
97.4876473212961
97.4999595884996
97.4572402614195
97.497263133111
97.4882943128175
97.4241160699441
97.4132756889703
97.447434781639
97.5027956896513
97.5048257093577
97.446635621991
97.4092501238668
97.393628185108
97.4368400905984
97.4756738977037
97.4117055795097
97.3954387956762
97.4099212519922
97.4016865126499
97.4502537486984
97.509485071386
97.4713500502832
97.3938098840911
97.3765871730435
97.3914738233174
97.3679758826217
97.3180293358429
97.3455967385746
97.4282049211127
97.4577205844609
97.4677349271199
97.5404957330432
97.6170115855448
97.6119373293851
97.5748105625258
97.5531122348275
97.5754098553943
97.636010701575
97.689703826833
97.6584683921694
97.5238284198303
97.5104938649812
97.5940113456021
97.5968206410668
97.5488844950667
97.5595139603367
97.6319543813399
97.6819680430542
97.6163514901635
97.5675747185137
97.6127185304515
97.5910755621674
97.6159273870017
97.6338613057051
97.6347981356005
97.6408723459188
97.6488582119665
97.6510998408262
97.6748040773367
97.7376915510615
97.7302124855529
97.6904578164897
97.7515831086417
97.8965622364821
97.9285196474519
97.8795900208187
97.8774747200003
97.9031881717102
97.9582168044364
97.887563063821
97.8221707872009
97.8787774190759
97.9356634994831
97.9206354471038
97.9048738317803
97.9014755602059
98.0163447758536
98.0984836231442
98.0819586780154
98.1225697948198
98.0878201012915
98.1149397861764
98.1897870794226
98.1272849733748
98.0425989283866
98.0504273173139
98.2191623053241
98.2533372781955
98.1053506495467
98.0671272707132
98.0862983424687
98.1781501129975
98.270433951951
98.1789680383881
98.0812481565155
98.0329632602069
98.0549108151876
98.1261974190749
98.1846292503841
98.1540186128719
98.0346568135938
98.0343707417901
98.0845783021038
98.0579649995653
98.0264421143627
98.0362411395455
98.1355344828954
98.1429525345366
98.0908179744643
98.0352300206021
98.0373188829869
98.1102554772219
98.0802728714548
97.9244698772694
97.9318469874298
98.0126808088919
98.0484577544492
97.9878366104291
97.8650683583381
97.8204980708107
97.9803291487104
98.044361020806
97.9591057252572
97.9478459949609
98.0367815802383
98.0824936374999
97.9757544503095
97.6432524218583
97.6575840142323
97.8603966531707
97.8948565087138
97.7721875918045
97.738736137337
97.8145426324777
97.9192889123377
97.9788796210727
98.0403851131031
98.0975970826382
98.0995656446368
98.0394111879814
98.1567226890114
98.3032632067669
98.2700733058115
98.1482507609345
98.0970437806057
98.0610454239293
98.1098986350073
98.0737969924983
98.0773694659205
98.1718005071893
98.182629419942
98.0938663990189
98.0299513147531
97.9654070088594
98.0043462472737
97.9579400331082
97.7569001206618
97.6000617848902
97.7005453858625
97.8954764738968
97.8986398638008
97.804456017433
97.7716825369999
97.7390221188358
97.7702161245978
97.7661552495176
97.6802064028702
97.6111640435055
97.6499783187966
97.6455723090685
97.6218475242851
97.6966576033206
97.7186209160878
97.7009204745348
97.6567477230165
97.5791968378322
97.5434469931191
97.5435577144843
97.6708065849718
97.837619898066
97.4514899283402
97.1907674262829
97.3244075043709
97.4547624278982
97.4886240278075
97.5186739520197
97.6475929052013
97.6140784963059
97.5131488956846
97.5232143084546
97.5828425451262
97.5964625711923
97.590896383778
97.5817871709928
97.5456741291867
97.5259827433593
97.5100080801732
97.4297490146984
97.4190583231686
97.5263227610325
97.6015865272418
97.3410012299934
97.2403985027516
97.3734577534627
97.5076585686593
97.7330056524069
97.419462854809
97.078157751201
97.291667144115
97.3548308255752
97.4294243367127
97.436505732498
97.4361707031195
97.4175343397377
97.5099949388507
97.374994564424
97.3572038325873
97.3721346081492
97.3657200435582
97.3767824337257
97.4074126574528
97.3995669428096
97.3857991887986
97.3671337076904
97.3738667638075
97.4093918369552
97.4508835006221
97.4466211670311
97.4265065394976
97.4356472279953
97.4539124070853
97.2918639678869
97.2959129398657
97.3664366931017
97.4363909916419
97.5370104786109
97.5661993144465
97.1495118461949
97.1433490251933
97.3034960521199
97.3138541467982
97.3525715760233
97.3785023515628
97.3481973014103
97.3291053930347
97.3749860817719
97.3852674511474
97.3366830548782
97.3065691288416
97.3311016618909
97.3639747349501
97.3639948831354
97.3517345913992
97.3587048237084
97.3717988571976
97.3824867331676
97.38640973235
97.477725662874
97.4558202662197
97.120824035861
96.9649603321127
96.9526773886594
97.090257380614
97.1759978683112
97.2493134004334
97.2646579441414
97.3201710905881
97.2890459462048
97.3082685908839
97.3265464807136
97.3109423638645
97.275634253698
97.352405818457
97.3496871219215
97.3225751871275
97.3088248441207
97.3445990078795
97.3147106580591
97.3304671270224
97.3490227215045
97.4001614545095
97.3344053391933
97.1613194285166
97.2307378051182
97.5375896311242
97.4135536274927
96.618455364259
96.7987465463684
97.0025118357263
97.120807881784
97.2394294760824
97.2880467880343
97.3266870255847
97.2328910494604
97.1835147458095
97.238482379066
97.2360750107263
97.2444688801518
97.2505855285657
97.4146204962793
97.4579068121504
96.8894010341176
96.7024524572328
96.9908524189117
97.1993801371707
97.3615500123887
96.9721304339752
96.9243986511049
97.1389142176346
97.1253168725069
97.2336668943074
97.256163270119
97.2685949218766
97.2829712753763
97.2474981370419
97.1328054589236
97.1928417053111
97.2476760330705
97.3034877950453
97.2790518736639
97.2629865793893
97.1999371172704
96.9618172645737
97.0541920919546
97.1543954856376
97.08984962424
97.1713111219882
97.1956896128069
97.2303690983473
97.3085390347759
97.2309265317928
96.9435248560261
97.0739772294942
97.0917720574109
96.8616737380156
97.0198791920546
97.1834244328361
97.1115419028871
97.0335243688256
97.2570598730266
97.5455568344089
96.8307013904809
96.5890303792533
96.6067848692726
96.8259413731692
97.0667540234358
97.1383362526148
97.2231721937182
97.3135965096266
97.0719917396423
96.9031007145261
97.125009158733
97.2038638464371
97.2537724963315
96.9136288437525
96.9582529202782
97.0455654776241
97.1225475032635
97.1903901186299
97.0757900361261
97.0253222382262
97.4955691995442
97.3058330780303
96.5461634845011
96.3880422389076
96.6482039041216
97.2385419748403
96.9245372740317
96.58070379686
96.9860986804385
97.0916393956376
97.1497992991876
97.2504379472704
97.4955715628096
96.9552938855934
96.5862050566994
96.966040532498
97.1063859946848
97.2978624763518
97.1600176302807
96.7025737219815
96.9304869665839
97.1180513132175
97.1667592180331
97.4448368150697
97.2603502086531
96.4992134979507
96.9150249355988
96.788131321033
96.6798451258101
96.7239205060199
96.8102393025748
96.9846862246654
97.0783980412589
96.7367874729252
96.7812964637305
97.2639905517042
97.3230745642283
96.4886451506505
96.644197834084
96.9672007829058
97.0996567070649
97.5994738824434
97.5133334837338
96.3267118081877
95.8930239259372
96.4257087532966
97.027684617637
96.8482653810164
96.6538751732686
96.9731909933888
97.0669681599952
97.0935092717917
97.1352252862542
97.1962272145024
97.050527292296
96.9232858954728
97.0600853431424
97.1070817662724
97.381087238515
97.4325271965874
96.7977989260428
96.0468054805246
96.4436994191011
96.6037852749057
96.2620907138012
96.5706126321459
96.8153378480406
97.0421608714387
97.0114250663256
96.9219085589815
97.0266839171504
97.2238023130264
97.1111758155456
96.7199480916283
96.7867912137303
96.4604683902679
96.6588415407899
97.2884054867097
97.7962605194712
96.5201306579889
95.2680952699484
96.3018894690075
96.8549398577806
97.2804438613221
96.0872509600385
95.7910937241433
96.5434395275809
96.8308100004623
96.9775918713235
97.0730673583314
96.8343574463779
96.7648138313777
96.6756205834264
96.6595939532234
97.079540550666
97.4271897501808
96.4468055477431
95.4602450258216
95.5274528651271
96.3544170262263
96.6528037826211
96.3517276787704
96.482329946002
96.7575333763697
96.8869521700041
97.2225822274857
96.2990401417969
95.9334799536494
96.4927475348452
96.7377721704727
96.4943041835732
96.5812161014902
96.630903350088
95.7065776179641
96.029951438852
96.3579513388421
96.5618524745705
96.6125963386576
96.8526244289517
96.5875896237516
96.0100830245541
96.2004476704135
96.375302626407
96.4535519722823
96.4948657912687
96.5013765504579
96.4845910140633
96.6885770280306
96.8245174744635
96.502166595088
95.2767498717875
94.3507522203691
95.5017684958268
96.1647841109226
96.5556939612967
96.3558137720919
96.0120044977112
95.8186722843657
95.2053031370678
95.6872498958558
96.1289678879552
96.2216764067435
96.2581102566903
96.2551442098755
96.2300908555456
96.3183715585957
96.348229108081
96.1633014830029
96.3946098698716
95.1791862709968
95.1591204251659
95.879663803473
96.154608578939
96.2383922162449
96.3097447615385
96.3630216526206
96.4875703519903
96.0802916563345
95.9695110767511
96.2378139910973
96.4645115212404
96.4769768884681
95.7701490543932
95.837426283214
96.1416719226443
96.2660441725605
96.4039752595703
96.5918004394241
96.8424898323958
95.8464522076363
95.5464761962741
96.1518722849221
96.3611046077584
96.511287741397
96.5460290649389
96.5796091010955
96.5596530045049
96.391665668864
96.4534201862276
96.5248589552462
96.491202414662
96.5780401439117
96.6195872120916
96.628866702589
96.5670291236557
96.6110833649962
96.5996445281679
96.6768876806983
96.699894943502
96.7278614040495
96.7439805777197
96.7381439020495
96.7313308570003
96.6884112890084
96.7096232079391
96.7841644389668
96.765297840828
96.7972422263988
96.7943336065063
96.8171339847545
96.840413720277
96.8615064373988
96.8547867672848
96.8691630952773
96.8589286085594
96.8910056094227
96.8822722109106
96.9039667731274
96.897091451408
96.9394018646007
97.0039148876652
97.2302229739268
96.9481196832898
95.8734799654412
96.2967328716451
96.7143461438968
96.8611748781438
96.9949693183373
97.2547235695962
97.0642337728088
96.1568083906578
96.3989883029435
96.8027704418965
97.0221369996477
97.0257425487339
96.6583669426605
96.7480663998989
96.9997275555485
97.2733668232405
97.5943828597157
96.6501669342184
96.1148710153752
95.1511742645388
95.4215868373403
96.551109841643
97.152398631692
96.4058191209194
96.325640045039
96.8639753713684
97.0469029443132
97.0225102675938
96.4612092790348
96.6411146463431
96.9373176043435
97.1533318794214
97.2106971082249
96.5813385941262
96.5470750585185
96.9610186055014
96.5714588429106
96.5607807438053
96.780087040364
95.6708406929163
95.3733737408725
96.244430147971
96.9041960755522
97.0939568924531
97.3742888453798
96.8276710769486
96.201192627179
96.5637868699294
96.733707170061
97.0572223032648
97.1515715222416
97.0093058914237
96.8607657966552
96.9835762549645
96.6124149670466
96.5305946090536
97.1774671597863
96.9861981137277
96.7292882332871
96.004717240141
96.0398096325486
96.8236449277927
97.2460213433683
96.3537958116011
96.2334354662571
96.6214323476487
96.8181527574993
97.1540015107522
96.9173492307605
96.8153883282943
97.1502086358967
96.8816528141715
96.8566520780323
96.8588792309772
96.2073192935126
95.4456651840105
95.7440500075522
96.6142213941087
97.0696729875015
97.1019855825504
97.1447461597139
97.2861567397473
97.3104936810291
96.7231945931319
97.1764629838914
97.055824469704
96.3890008469223
96.8319340521156
97.1321973726107
97.2192283961095
97.4439528053135
97.2582054646204
96.6481218733498
96.4370749356024
96.7998976830952
96.5920216070635
96.5560723930437
96.8334729938437
96.8861096057816
96.8983333666205
96.8931605957357
96.7640618384251
96.588965867779
96.6467386825064
96.7173756669709
96.7888896753955
96.8451437494456
96.2869056082273
96.366965888777
96.7851369186465
96.3668730093258
95.9461922157129
95.5716450697271
96.1201805964627
96.4145401602545
96.4515132908418
96.5067489467205
96.5479994419174
96.6353306188496
96.0443243727014
95.7459610079012
96.0432888879869
96.0393356007308
96.086727570564
96.1248935438086
96.0422977341395
95.6925243220422
95.6353497867997
94.6117276319522
94.5532361697703
95.0082849979151
95.397357996734
95.5816853929076
95.3858306025641
95.4413486550007
95.5553829407971
95.6215250437683
95.3814336321713
95.1188290800498
95.3428550955824
95.4194140289073
95.4712560804707
95.4838271132776
95.4801713223354
95.4724011102354
95.4402647109909
95.4444712590587
95.4923742012972
95.6944555506083
95.2023130293657
94.2885814601826
94.7161294232645
94.8940382552221
94.8611976584416
94.7503711022264
94.7534820114512
94.6532302996675
94.3080904234247
94.2949531377959
94.3833554001391
94.4416217042331
94.5130556263222
94.4631294628654
94.2217597985654
94.1660182937319
94.536925257762
94.7020173448545
94.9903735638176
94.2180674252088
94.0838240245287
94.5792908587095
94.7467022008479
94.9896786545346
95.1982674485854
95.3581920748941
95.4110484749357
95.4172658025907
95.4187809207629
95.4874939561706
95.520744861259
95.5959196618684
95.6324900297397
95.6908898485728
95.5458979710424
95.3697192366933
95.5611812292472
95.6659103153421
95.7533826798995
95.8802818280018
95.8034190342785
95.3823999541401
95.5176338989495
95.6875414430567
95.7323361767011
95.6834984523168
95.3876654770675
95.5133128797584
95.8368057533028
95.8744122481169
95.9236892042418
95.9468275204083
96.0278890333946
95.7547791896989
95.4847704194405
95.623113895042
95.7111357073804
95.7315866347652
95.6746254690351
95.5806327826425
95.4849970030536
95.3867774777729
95.2431592557209
95.1077410621654
94.9680990636744
94.9449762120447
94.8041519408975
94.5839237355343
94.2468881622975
94.073175740859
94.1552069620992
94.1167418919387
94.073627138533
93.9583236977304
93.8971787805454
93.979967699717
94.0504138869326
94.0952358633826
94.1330599220555
93.880088782222
93.5849489035272
93.6989383042026
93.6153055571585
93.8010833204575
93.9050102635121
93.8958097467183
93.9064120502375
93.9355794750048
93.9279474083765
93.9359023410164
94.002027387098
94.0818511010867
94.1571280681406
94.2269033933493
94.2638523962732
94.2838284104658
94.3172838213425
94.3163647597
94.2803591557673
94.2208864462459
94.1333713707642
94.0404951775308
93.9256537583182
93.7713005030728
93.4200284981524
93.2508730701404
93.1751434776038
93.14209166465
93.0400178710065
93.0273106199348
93.0560664248901
93.0142415375098
93.0416530777348
93.068340272975
93.1362520533657
93.214467602222
93.320399789883
93.3862255600412
93.4428665132498
93.4696748180756
93.4769064801503
93.4442406938143
93.3991980713474
93.3195935035273
93.2345877722921
93.1009155189288
92.9432798570178
92.7079851429502
92.5319354174919
92.3759316735819
92.2640607177983
92.1822242873431
92.1070119625887
92.0742818561082
92.0687521866937
92.1632612612589
92.2816042869809
92.3864922075908
92.4985173106312
92.6297615829997
92.7973431599599
92.9515131696072
93.1160666223607
93.2819797144692
93.4290843571658
93.5733029240887
93.7112055427429
93.8394081828151
93.972294391235
94.0931019221948
94.2060978098999
94.2885206757851
94.360173212348
94.413549958779
94.4464806724257
94.4607446873333
94.4682230567869
94.4751516095646
94.4961677996846
94.5227972619722
94.5129775788016
94.5018681008432
94.4967051783528
94.4708287808344
94.4300055247465
94.3660654789619
94.3035395697615
94.2458480462304
94.1859953896729
94.157182404094
94.1887275921135
94.2194807978076
94.2464895627466
94.2864459356489
94.327085360966
94.358339372642
94.3900592889394
94.4278055627717
94.4864115417047
94.5710293838554
94.6251118243928
94.6963061894179
94.7606796109607
94.8092391972876
94.8482553693768
94.89341238072
94.9330581594435
94.967719701755
95.0008392739534
95.0282488017563
95.0449460880101
95.0888616952645
95.1325911791656
95.1516828091127
95.1760376852875
95.1893178612172
95.2081545661071
95.2248426351399
95.220350228132
95.2018031904071
95.1850626303307
95.1712084770528
95.1580421406093
95.1362519642154
95.11760232296
95.1126431536276
95.1350124439758
95.1592585382196
95.1918792333897
95.2288959851141
95.2635226965779
95.2950340186542
95.3308111524308
95.350923303796
95.3565766382312
95.357345968052
95.3467243928035
95.336105468536
95.3502160725501
95.3891165988131
95.4491698092805
95.5286779793881
95.5960223268685
95.6565661908145
95.7276121176135
95.7930428589004
95.8558168799573
95.9306424702888
95.9999688337115
96.0659103851493
96.1361775760154
96.200798254686
96.2697095612238
96.3334915384737
96.3858945043826
96.4295367525625
96.4719559905317
96.5036693081966
96.5275249735132
96.5426633837044
96.5383949820994
96.5030770596904
96.4385975462698
96.3523432774644
96.2315263107763
96.0650276414924
95.8970252665742
95.7617650491437
95.6594149952677
95.5826081316575
95.5484437381723
95.5459699628588
95.5566247422305
95.5784122042188
95.6188855349107
95.6692897725313
95.7320707698833
95.8103988620652
95.8917867749286
95.9689207178133
96.0515823466753
96.1366649019412
96.2183160691549
96.3033511769753
96.3782278633771
96.4312797476378
96.4870449891845
96.5377164918637
96.5768369585105
96.5905810462826
96.5965746574973
96.5928891215317
96.5716253455714
96.5357703798564
96.4937847567111
96.4377661211152
96.3715660983459
96.2884552848948
96.1844946820993
96.0813180938513
95.9622106941239
95.814994058949
95.6345699802048
95.4285203132294
95.1990818602359
94.9218999240464
94.5980140904832
94.2268037883307
93.8293014229001
93.3946614868446
92.9343103440331
92.4754401153792
92.0399491780507
91.6507494712249
91.3221740608852
91.0784647448757
90.9269253596043
90.8538145442691
90.8570533922065
90.9260753140417
91.0416982186098
91.1798958383566
91.3180248563906
91.4559897821123
91.5986132370516
91.7419108736441
91.8913149093056
92.0385909792062
92.1761826877872
92.2957312640436
92.4111381436545
92.5283000409594
92.659411895873
92.8141129081703
92.9811207082814
93.1691091108751
93.3611768868121
93.5375648203317
93.7014581046797
93.8449565400213
93.9560010517494
94.0289802232534
94.0478707029632
94.0139871179977
93.9383843177439
93.8297199681011
93.6973970044335
93.5514416307182
93.4171236306133
93.2771727491364
93.1211017137359
92.9327766172778
92.7015761517517
92.4295599471443
92.1229627481406
91.8081706297733
91.5306766048653
91.2976885677555
91.0830529189166
90.8832377153431
90.691619173114
90.480562267727
90.2381199252099
89.9356684163886
89.5592682172014
89.1106193261689
88.6058388753972
88.0940647770185
87.6193940760483
87.2148727487264
86.9251652216822
86.7661440721409
86.6985026492428
86.6811803930592
86.6980846878144
86.7316786732312
86.7534427931225
86.7646153080478
86.7798354964992
86.8172233294885
86.8886791215038
86.9991503766612
87.1441215007522
87.323707531907
87.5154524203968
87.7103941308109
87.9100938415274
88.1010170733894
88.2897367464545
88.4766053388249
88.6426541050519
88.7740935890911
88.8694546281261
88.943377152986
89.0017906698079
89.0517476949321
89.0954476914891
89.1351145288065
89.1763532582128
89.2060003942882
89.2093442624479
89.1765901698389
89.1033261589756
88.9925137532329
88.8295907180585
88.6118978005945
88.3711092745401
88.1312399691963
87.9189371665163
87.7371263574739
87.568649265618
87.3943560717549
87.2193723756124
87.037493654793
86.7963253294315
86.5127444166248
86.1854703384008
85.7992546063614
85.3591231839962
84.8640447072914
84.3263899874189
83.7336764524942
83.0883514158784
82.4329296123794
81.8096874462194
81.2445537910064
80.7609193042333
80.3858368443568
80.1041766365067
79.8897333020709
79.7235247645721
79.6040660148394
79.5355924410884
79.5290083050222
79.5946388589736
79.7282184366524
79.9109254021233
80.1373201052189
80.4096871393134
80.7068942061449
80.9933596340832
81.2678984082136
81.5245843253228
81.7241272186008
81.8317689104701
81.8228134624228
81.7063423395635
81.4959783043162
81.1990108014452
80.8383211955865
80.426025148032
79.9907935726595
79.5711869304116
79.2032319306269
78.8944872514709
78.6581013535941
78.509716309926
78.4188304848077
78.3723187283161
78.3698756966489
78.3970707018926
78.4615467372855
78.5421097588716
78.6294272685794
78.7460962147421
78.8662239869431
78.9843829938799
79.1004394927919
79.2013599876741
79.2929967997959
79.3866829279833
79.4617278708793
79.5061607178406
79.5290831245729
79.5425869539119
79.5618337328087
79.5977883977844
79.6648971432607
79.7463103466695
79.8089150929749
79.8504212124639
79.8631724714566
79.8508992982413
79.8419897392278
79.8138578042738
79.7666883254661
79.6980252168028
79.5760698740698
79.4387719030024
79.3213701521881
79.2370129173303
79.1801498120015
79.1555788836554
79.1811261741857
79.2468905972033
79.3440389165777
79.4486214017696
79.5638976133897
79.6830219256815
79.7960994050128
79.8929684294101
79.9565328820239
79.9775143336295
79.9451512480438
79.8284358948213
79.6499833703629
79.4739033553985
79.3340032188464
79.2585877720904
79.2780693180566
79.3888674750327
79.5669675925979
79.8017447736812
80.0800619940178
80.368228864554
80.671236131387
80.9808327550164
81.2579266696493
81.5170175722787
81.7804423118608
82.0266816728469
82.2585909531571
82.4796263046188
82.6979545003641
82.8984088878802
83.0846919425301
83.2727073704585
83.4684012718473
83.6637528552509
83.8445615843652
84.033570060574
84.2190795698334
84.3926525835783
84.5816289681921
84.7648597533511
84.9479088519891
85.1212270206102
85.2809709765139
85.4368192249406
85.5940802495646
85.7561469930056
85.9320520495934
86.1035882754224
86.2635030737374
86.407520397056
86.5304220880077
86.6632645286361
86.8113453235359
86.9445081625478
87.0743178670995
87.2101098754232
87.3202031980358
87.4252877325552
87.5573646508268
87.6788185931229
87.7685905453302
87.8641959579822
87.9636641725532
88.0486558049686
88.1130209081006
88.1899625898224
88.276612868924
88.3453017606124
88.412878875747
88.4850089831703
88.5704358447623
88.6484732410425
88.7020227795677
88.7769296053693
88.8654583446706
88.947844856079
89.0237473272426
89.087715057661
89.1515066919199
89.2222492815613
89.2972423564562
89.3616561026139
89.4164025720242
89.4569601131149
89.4885564621521
89.5212345400942
89.5439065564988
89.5498730431308
89.5641130620513
89.5823806686188
89.5815166487181
89.572487592329
89.5752559873908
89.5648800415489
89.5386236247295
89.5179951411036
89.5110044618584
89.4988942701357
89.4700308233537
89.4508490579546
89.4274593915892
89.4121844828593
89.3998535870222
89.3663993559739
89.33885059374
89.3374425109516
89.3444615965355
89.3500591478458
89.3544144336453
89.3715724977731
89.4160325024821
89.4689161521959
89.53325847844
89.613540180083
89.6865642877808
89.7724170529468
89.8407743616094
89.9298807436094
90.0161543749314
90.0904133876953
90.1699296259042
90.2375040936092
90.3087695183356
90.3988491514003
90.48859547817
90.5410451988929
90.604946941373
90.6886995494769
90.7702539406795
90.8411893657945
90.8872241354999
90.9576769736752
91.0198611371399
91.0743503230671
91.1477191400293
91.2127990523628
91.259324785458
91.2960718037707
91.3458234260407
91.3904321830157
91.4227450317239
91.4661450867226
91.5058542022054
91.5476379064981
91.567855834008
91.6143210276478
91.6857946343435
91.7162052599818
91.7429668879616
91.7642039270887
91.7815394254512
91.8044633118317
91.8426145180059
91.877484345559
91.9122718497727
91.9382105772748
91.9682090757038
91.9819383039842
91.9947558893569
92.0317852773254
92.0611678272726
92.0601434986174
92.067231279668
92.1037673476604
92.1127785603118
92.1014476876654
92.1333637973831
92.1641503172058
92.1975800292962
92.2196966764417
92.2229586177173
92.2392435097349
92.2544276436414
92.2848697394414
92.282359289148
92.266250192083
92.2967805218773
92.2948905993385
92.2825132358955
92.2821108976638
92.2991001889853
92.3187894251527
92.3509898220746
92.3783862558247
92.3817217209353
92.3863735833941
92.3514707670397
92.3096444133595
92.3533009853987
92.3908891821027
92.3798673309111
92.3874875176589
92.4172587441592
92.4246227822352
92.404893277396
92.3683631741026
92.3955637213104
92.451426567901
92.4459213244436
92.4390594266197
92.4347211269009
92.3982514960242
92.4138694030439
92.4566628071033
92.4763598995891
92.4389862597334
92.4037501934737
92.4052372313447
92.448694624478
92.4649719605324
92.4477960835
92.4385612444803
92.4303677499845
92.434128562615
92.4577945331268
92.470526260706
92.4777115423909
92.4616193012435
92.4361591387278
92.43872880292
92.4333048603469
92.4276004808109
92.4246828317521
92.4332226147906
92.4439443253361
92.4275989307549
92.3904575596058
92.3912512269234
92.4083107196498
92.4163997173525
92.4174934009478
92.3904919122607
92.3899737181405
92.3671265598611
92.3699405552971
92.3646309885181
92.3645908372609
92.3692196420106
92.3547248653909
92.2889209743487
92.2818221283073
92.3367316604222
92.3627821453672
92.3205735813528
92.2744693690112
92.2746555543003
92.2556589470315
92.208402543785
92.1710728425315
92.1417145365135
92.1893188001105
92.1961248643533
92.1482987838499
92.1183282324687
92.113590706238
92.1047588128261
92.0883604514755
92.0042366335299
91.9808876614902
91.9747219233388
91.9492377549061
91.9027936451783
91.8370645910684
91.8263329922466
91.8396093715152
91.8343823974233
91.7936748083413
91.723337318373
91.6761778543186
91.7223248943409
91.7391552067078
91.6753863579903
91.6373318801987
91.6114796926715
91.5926687339482
91.560913728891
91.5194104460064
91.4996112402634
91.4437359992461
91.3375458643556
91.2347718924016
91.1840033880706
91.1410446086262
91.1005382053812
91.0484474664133
90.9549633417255
90.9072714315998
90.7988007771253
90.5935653231348
90.4831275352807
90.4100852481498
90.2738282132102
90.1324372547168
89.9295623378741
89.7610038124671
89.5708755167515
89.4003027648292
89.2287947965387
89.0855042219545
88.9871695326025
88.7792484991544
88.6370391972691
88.5900337833969
88.3635360120882
88.1737507389419
88.0932003278254
87.9262706599166
87.7806594685122
87.6810430234173
87.5407632935534
87.4882272399178
87.3850840072881
87.3093114714498
87.3589989815487
87.2985413261621
87.1620247240346
87.089369711558
87.0334022235221
87.0028556155243
87.0292670251118
87.0464911506014
87.1350342461169
87.2091777744755
87.158282817304
87.1573642184494
87.1397345678483
87.1446016522906
87.1133355953031
87.075528033738
87.0450619307194
87.0323620160197
86.9984565780566
87.0671115056969
87.1889039415972
87.1735542903182
87.0790302724996
86.9458110995972
86.8102268134555
86.6811626433324
86.6616104974341
86.5038992647109
86.1617421062772
85.8937691053608
85.7016559995209
85.625775063957
85.4819572468043
85.1181807231194
84.8243198549448
84.6368108960813
84.5452889974824
84.3535662074488
83.8445692227016
83.456598847458
83.4792326184231
83.4003731404938
83.3704540313181
83.3419357481818
83.4351672463696
83.4857700353806
83.3901795649736
83.2478186300437
83.2093622405803
83.3351729666112
83.509450161664
83.5913497626277
83.7524603290464
83.9110037473861
83.8615274426415
83.778129627277
83.7471114418461
84.2237933080301
