3596
4000.36533379555
650.420452594757
1
128
2
98.7173720019772
98.7340458288608
98.7494263713756
98.7268077407799
98.7168681599883
98.7110908108522
98.7305567924751
98.7383528147314
98.7419600871679
98.729742376269
98.6909779367699
98.6805109245845
98.7360185563879
98.751599663121
98.7319556299153
98.7282763527789
98.7526167700861
98.7476447019604
98.7527608939417
98.7551034122349
98.7662961394675
98.7773754125117
98.8107018998781
98.8006266690252
98.7475014652821
98.7118789154441
98.7165503164218
98.7165090642192
98.6881275712985
98.6793651166749
98.7096120797406
98.727970315501
98.7456243866263
98.7424027443416
98.7064948713941
98.693433213486
98.7289113699895
98.7425947745329
98.7194912729542
98.7266537648921
98.7463818915072
98.7106480856925
98.6963297571101
98.697682256476
98.7240367960714
98.7529630862852
98.7431693168053
98.7146044313167
98.7151846544218
98.7502310818031
98.7851084484527
98.7204596836276
98.6676030479733
98.6704684864322
98.6818378566848
98.7064519623279
98.7013627040072
98.7000966201259
98.6926588568247
98.6551468215943
98.7038973353597
98.7593072389404
98.7720423780086
98.7513655047584
98.6987535956159
98.7201010125148
98.772656539056
98.7955793651489
98.8037824655948
98.8180067460555
98.7193218339265
98.6418908689382
98.6415532706068
98.6340190689708
98.6611632990092
98.7109263772783
98.7729806272035
98.7502260803401
98.6389741687711
98.601088879589
98.6521169817652
98.720576155868
98.739717836091
98.687620494013
98.6925350110095
98.7845078597462
98.708027044532
98.6127552296013
98.654155944211
98.7200265710968
98.7386845960521
98.7571675666981
98.8017001159786
98.7698885109735
98.7228860243778
98.7443028691506
98.7627835540412
98.7535203453448
98.7654977334986
98.7718055636424
98.6929354045533
98.6186379642803
98.6400969048456
98.5259810628813
98.6567755229002
98.6796468974735
98.4855771354929
98.5176665774668
98.6461476809939
98.7236300244428
98.7546206112906
98.8039764175319
98.7841648855009
98.7352161533667
98.5760080500073
98.5818074237635
98.6886659994574
98.7637315153342
98.8835270599087
98.8755406130951
98.6211912765865
98.5609876402707
98.7248533735723
98.7739301151898
98.7694908773356
98.7281062293733
98.5433285928013
98.5279902002435
98.6239378399701
98.6986232505051
98.8134768661683
98.8640388928546
98.7426809466583
98.6047198107248
98.7263006679018
98.8610105235132
98.7896665028434
98.5076387204414
98.4099410619989
98.5572599979941
98.7170488464406
98.8400995924381
98.7239650761785
98.5953146477445
98.7166324194356
98.7409246862104
98.6610332414674
98.6640721529752
98.7316688519237
98.7486858395135
98.7735789969373
98.8051525848222
98.9206883020164
99.0033872655986
98.7417488441923
98.5748777965728
98.5239100964065
98.4498102735433
98.5828645606609
98.627352494694
98.6895705448886
98.7712781556939
98.8365125685414
98.8382417477748
98.815564231805
98.7554949630693
98.7238816647065
98.7649548696272
98.7228538975096
98.7173834813292
98.7852147132466
98.6730884433016
98.503172303561
98.6079529669165
98.6636033117668
98.5970750907261
98.6948608032256
98.7636883173112
98.6971763694615
98.6528494557331
98.7694221775804
98.8375424092811
98.8975820151601
98.8551090740578
98.7637786120674
98.7716734047011
98.8211527392751
98.8919290129603
98.9308506604426
98.6741068525042
98.489791878732
98.5513559864291
98.7272715656999
98.8704455548976
98.8799860729782
98.5899922512275
98.555401406845
98.7154154441563
98.7829071979677
98.819960525425
98.8177592634456
98.8308594971212
98.9514250901177
99.0392973690231
98.9574813824472
98.6816062750322
98.6550930829958
98.7780740391663
98.901163066663
98.9295832287674
98.7750562146254
98.5239722336348
98.5907182469069
98.7665742779545
98.8052108974456
98.768099719316
98.6597529244712
98.6575693904542
98.7641773832811
98.8139435308878
98.845520552712
98.8441502872551
98.8745507502268
98.8826327697614
98.8458241626494
98.8365309420664
98.8876475282362
98.9364504346036
98.8590023317986
98.7715861556592
98.755609443578
98.8094191827348
98.8903511775706
98.8997450455263
98.7972828464491
98.7116742712948
98.7902126445715
98.8125746000814
98.804979959181
98.8226149428472
98.8477017408092
98.8962939142671
98.9700428519385
98.9457102417714
98.8455149076579
98.6970044026388
98.7603411572294
98.8615519371592
98.8759439545283
98.738274759766
98.6936609537202
98.7717088820736
98.8421624191845
98.9289053087122
98.9888946861575
98.8332554695843
98.7168785421433
98.7980056053479
98.8087033538402
98.7173799836616
98.7816909047971
99.0024393016191
99.0715959553876
98.9251075401414
98.7307629405395
98.7877868305631
98.7845363032112
98.5364213314193
98.6640759984568
98.8865940427726
99.0055263020409
98.8333639221091
98.4254236466768
98.5386892087879
98.7723251571949
98.7389064408566
98.741035234047
98.8706520581796
98.9176740325218
98.9039489192125
98.9381187769621
98.7632743569521
98.5606450800772
98.6488898627789
98.8308094725743
98.6787712326229
98.6020888186882
98.7743066094216
98.9278112750141
98.9931228448876
98.9620348424955
98.8183606503489
98.7287296443318
98.8685531444189
98.9151782546496
98.8024954253954
98.7702804338642
98.8295969618536
98.8193853469335
98.8019956084307
98.7740824285005
98.8457531297018
98.863828559152
98.9321653362834
98.9829008864797
99.0496901399992
98.9060929775834
98.6767922514834
98.7477939420119
98.7896417918788
98.715757564655
98.779969909156
98.8576511892002
98.9073842083995
98.9381984148453
98.9977085964899
99.0482273260774
98.9991962893705
98.8018392803249
98.7848523352221
98.8999662008998
98.9248898844296
98.935499962888
98.9229158401333
98.9404392490719
98.9554137599429
98.9860010902653
99.0548915423418
98.9815668332735
98.881176062569
98.9019802132271
98.9109063761827
98.7588854126537
98.7247465705352
98.8467304369677
98.864488130884
98.9120456720045
98.8971174726438
98.8869308678587
98.941921599171
99.0149077880825
98.9665070518931
98.9141341291184
99.0393722143132
99.1758261588482
98.9868343296638
98.6573582240906
98.5314159254468
98.7184389004115
98.9481606620338
99.0260543148414
98.8670072255312
98.7128853874059
98.7183912039654
98.7280115281253
98.8670742231866
98.9395359768292
98.9624696775505
98.9518937486307
98.9000839783697
98.891088631245
98.8839767813416
98.8683289844536
98.904600494652
98.9970959720962
99.0271666800833
98.9284187783405
98.7646671042221
98.7352886424094
98.8834003321171
99.0424531496242
99.1256028525881
98.9388441916663
98.7377835933724
98.7522513345515
98.65991166785
98.5001949640657
98.4315151231775
98.6052336502707
98.7597788279978
98.8367753892173
98.8288885263178
98.7628599014505
98.7617125397981
98.8049384390883
98.8036529504842
98.8237689979592
98.8530416851143
98.8472059625577
98.7957562474381
98.735867536664
98.6910851235102
98.7842077064129
98.9362172044786
98.9900174826474
98.8416480287864
98.5609809806125
98.5392116249727
98.6444993234151
98.6454601734436
98.6485381070169
98.7805813934184
98.7971611603667
98.7937625865442
98.7759362808264
98.7524108556814
98.6163547246088
98.4996557416255
98.5497068423768
98.5835687810577
98.6174283131615
98.6481022512915
98.5587259602594
98.495145515048
98.5678052813455
98.6631169687668
98.6143827732054
98.6547801419794
98.6582528325329
98.5592047377914
98.4959762224979
98.5707152978983
98.6352468652667
98.673547792771
98.6790932302192
98.6426243672084
98.6362137026895
98.5956633289955
98.5447810842838
98.5621150591703
98.6742469388353
98.6664051522663
98.5369896647431
98.4692011191604
98.4482579969835
98.487572158289
98.6149376060976
98.7178536605558
98.7024177744858
98.650684959207
98.502223423528
98.3205305383619
98.2932710947863
98.4231913680616
98.4745633256085
98.5214047519919
98.5610531716475
98.5071982262997
98.4544580112173
98.464730723557
98.4585447464624
98.4129799311493
98.4216276699142
98.4455550843435
98.4857789015945
98.5368889302256
98.459337399557
98.4162260986882
98.4946586837688
98.5514794000629
98.4713154302612
98.3723096871504
98.2727495704975
98.285098609568
98.2441759437046
98.2173106074861
98.2146876694376
98.3019124942947
98.3395972428962
98.3360201234041
98.3302203472437
98.3199102004499
98.3525337398425
98.3495670157094
98.3747583425561
98.3576178999095
98.2937543600482
98.2838252460456
98.2470265131784
98.1760923865224
98.1749589634678
98.226278486511
98.2272062454472
98.2169606209112
98.1424891393483
98.0398253999234
98.0048653740476
98.0132076318988
98.0764779389066
98.1526623471508
98.1873665304988
98.1934014409853
98.2008934799281
98.1756748684118
98.1219929174829
98.1378204134218
98.1113277397998
98.0168047072251
98.0294252029397
98.0903621946651
98.0971698694218
98.073233861284
97.9906816220041
97.9493675150503
97.9697793517199
97.9540060522231
97.967652594349
98.0038124702619
97.9487017600532
97.9011864345184
97.8645827062769
97.8969329893697
97.9210710686728
97.927505272923
97.9703633676297
97.9319169112697
97.8211681175737
97.8298618873036
97.8551888537604
97.9002054367637
97.8945034296432
97.8092102468123
97.8219288253212
97.8106248827374
97.7315983555776
97.7597396905166
97.7966331622474
97.7679653455935
97.7521404469024
97.7066504158854
97.6450641784305
97.6692748953091
97.6781967566743
97.6088600811782
97.5735310319994
97.6201940947029
97.6560865292213
97.6572871322501
97.6731678718248
97.6097973146093
97.5318425374707
97.4912305718673
97.4645420054248
97.4854556829632
97.4274119178777
97.4382180948548
97.4743199415158
97.4519572548365
97.384257812119
97.3216498547514
97.2946184537447
97.3220108895158
97.3157882960035
97.26098105144
97.1855716421517
97.1686979167415
97.1787249659614
97.1923903057481
97.165869892271
97.1750221156206
97.1860012175787
97.1478607071254
97.0685596144422
97.0208899345804
97.095199705669
97.142107504334
97.1029322725101
97.121520615473
97.1725673658599
97.1119080558962
97.039721757122
97.0417132648409
97.0364060919723
96.9984373465639
96.9902216735838
96.9687136516472
96.91054519512
96.9012840468454
96.9075713399938
96.8966425186394
96.8756217416022
96.8641615748012
96.8475138784702
96.8439410377037
96.8595484702034
96.8051489197396
96.7576281578223
96.789152118577
96.8053159426834
96.7860904287678
96.6824464682208
96.6290342365871
96.5975602648259
96.5835661126489
96.5874339210311
96.5751314328436
96.5689798995416
96.5917708948149
96.5831201024997
96.542763275231
96.515591804052
96.4898035347125
96.4461114817477
96.3957940894136
96.3868050462661
96.4355312731593
96.4585509451538
96.407913674394
96.3747316371136
96.4021691513591
96.3986408916159
96.3313660900636
96.2801393629359
96.2725495893543
96.2419064856014
96.2353366017016
96.2193133617569
96.2337928058646
96.2137079262565
96.1420420571711
96.0959251278318
96.1044665175544
96.1240277269167
96.0931739553567
96.0414703247838
95.9680721839601
95.9100158310625
95.9289486008938
95.920215782261
95.9223376078151
95.9219776777145
95.8730240628842
95.8263664747326
95.7975757183204
95.7518724701512
95.726076579759
95.6951742811863
95.6784095774422
95.678900953709
95.668842439924
95.6372222147589
95.6604300101721
95.6652023309833
95.6610185229688
95.6318620017866
95.5709102061477
95.6005892963763
95.6236980227665
95.5964850625971
95.6086276108625
95.5909238168685
95.5613395571041
95.5196031544253
95.4865093197357
95.4911420092588
95.4625739278317
95.4061904693624
95.4179837576441
95.4177603529091
95.3855268810127
95.3949764133531
95.3930731567529
95.3349112383026
95.2841957670433
95.31179218288
95.3736917008512
95.347264087539
95.2803326403576
95.2296331424546
95.2152877553113
95.2102703755564
95.2081349367491
95.1814876446127
95.1628948138729
95.1612976100287
95.1273620088894
95.0679598168577
95.0566796651899
95.0432121684208
95.0282251751958
95.0016560058204
94.9795614304244
94.9680993443069
94.9355235928723
94.8918735799221
94.8847526685716
94.8551311894268
94.791778382727
94.7207204781734
94.7232150020963
94.7412597040652
94.6880601048317
94.6296863782575
94.6083687203263
94.5581247584626
94.4938874719997
94.4336444202531
94.3820291740236
94.3535752212879
94.314536942192
94.2576548129182
94.2314685519323
94.2152325907055
94.2388489798806
94.1986538502183
94.1536681838967
94.1200304709216
94.0894118111569
94.076620282965
94.0295588573174
93.9490610772301
93.9316854428736
93.9435314474086
93.9472128752897
93.9353831060034
93.9468139932934
93.9304984724409
93.8868974376695
93.885531880355
93.8872238836363
93.8738681527169
93.9018403745899
93.9037720465821
93.9213718049702
93.9473536075237
93.9465396217597
93.9553676960337
94.013311380689
94.0128983111428
93.9946404269528
94.0047711957971
94.0056094788383
93.9744782942895
93.9872591388256
94.0364475122049
94.0621858241547
94.0219408629623
94.0270824024086
94.0348226937719
94.0041785866191
94.0201584066179
94.0262450373152
93.9887822470496
94.0107321077149
94.0366629185122
93.9740107137461
93.9559481515588
94.0271931694363
94.0184420743389
94.0062998700336
93.9941233646324
93.9779758928446
93.9705194956004
93.9599455589779
93.9384067239308
93.9341559596464
93.9313535371189
93.9095728219131
93.9151104909214
93.9338801232549
93.8976654127734
93.8365551157972
93.8186161349723
93.8521296236843
93.8842452519933
93.9045454178278
93.8996002913919
93.8775366969772
93.8925695056225
93.9184245357298
93.8755397994593
93.8458261487355
93.8498015951051
93.8834466197406
93.9282278681532
93.9541070349033
93.878527987123
93.8372143380431
93.8587770873535
93.8801292473161
93.8619482383182
93.8724336289565
93.8765212998145
93.8646748748941
93.8289797963173
93.8173394548155
93.8194624695811
93.8133077596278
93.8388654326189
93.9230416622746
93.9464297438583
93.9240312321281
93.9047928737444
93.9472084537469
93.990769567066
94.006152316015
94.0234394514134
94.0754074521851
94.0812986972338
94.0609698432552
94.0627056676606
94.1207333172631
94.1630901770096
94.1684437703016
94.1743929084929
94.198192530369
94.2101905616858
94.1938454495506
94.2174951420626
94.2809670374
94.2958115080574
94.3148803107942
94.3396718839991
94.3879857721335
94.4056685756975
94.3715088054882
94.3508389769172
94.4032747067466
94.4081959287631
94.3899675945283
94.4244566815183
94.4735736203603
94.4634475794749
94.4500498515354
94.4774677212135
94.5534272312377
94.5697079055887
94.5765474064685
94.6226740419316
94.6545652328762
94.6112854259759
94.6043880030395
94.6391995012077
94.6721128504947
94.6875907638796
94.713440136247
94.7139953135947
94.7269041521275
94.744451045093
94.7430264113475
94.7324265329586
94.7113428506588
94.7258881271138
94.7816584425601
94.7900844861911
94.774028917347
94.812182556712
94.8431897684531
94.8481439420791
94.8443821189873
94.8576896611642
94.9148062989964
94.9273186201407
94.935237636687
94.9483142518968
94.96381676368
94.9567322954888
94.9671728008371
94.9914401062642
94.9883903978229
94.9782628042907
95.0274329533673
95.0273682925613
95.0352594676348
95.0889384912236
95.1342678663402
95.1181805385057
95.0817579830704
95.0649299179995
95.0785173063004
95.094979745419
95.132327950109
95.161214781091
95.1817792031978
95.170503074347
95.1676306938472
95.1855205863418
95.2068661596667
95.1987377012663
95.2030358747168
95.2073074426705
95.2330012248297
95.2372117585828
95.2418765734557
95.2390701190979
95.2497207197162
95.2707730873403
95.3032305505057
95.3226897112931
95.3127499997563
95.2878918895397
95.305426511354
95.3467158329395
95.374385397502
95.3767587769638
95.4091736276184
95.4281337428329
95.4092781111139
95.3547781297213
95.3587595563947
95.4056509077546
95.4318748418791
95.4383946166186
95.439378535204
95.4160031975624
95.4548085977423
95.4958264477629
95.4942024307519
95.4751891478195
95.5085881813334
95.538208153926
95.5310205517246
95.5029360840178
95.5017864075114
95.5336654432912
95.5719939426537
95.5528966829531
95.5554208548249
95.5914879519298
95.5958759073162
95.5630304388351
95.5669374359366
95.5953048159561
95.6098767358843
95.5870548310046
95.6026405929678
95.6291351466412
95.658476527712
95.6927560397714
95.6865571245233
95.6391896767005
95.6514290181619
95.6691260202362
95.670557819236
95.6741864941231
95.7227043037384
95.7395446679986
95.7343215679735
95.7271895412111
95.738266951744
95.7503532133051
95.7690482499868
95.7783383202013
95.7650994409789
95.7407433121561
95.7521477391023
95.7870129643317
95.8074866531757
95.7869352329761
95.7969273837829
95.8234783585207
95.8312579011055
95.8407716483501
95.8380437914318
95.8066497860429
95.8096982444856
95.8357250689706
95.9010081092919
95.9235651331984
95.8920902155083
95.8681240825054
95.8655472237434
95.8691443237567
95.8917158516141
95.9274758548466
95.9303469566632
95.9099232833096
95.9452829516222
95.9753542839829
95.9630016445534
95.9031445599867
95.8973500651109
95.9266828468264
95.9691909117709
95.9934568608247
95.9987191194722
96.009099350436
96.037522806708
96.0333368606413
96.0422879566393
96.0352920446888
96.0214978355391
96.0209582803709
96.0319255649191
96.0227185581852
96.0295957183344
96.0763767825724
96.1012209012794
96.0654428325428
96.0454769118524
96.0606422360444
96.1068008062981
96.1456761733394
96.1373020856983
96.1020478933404
96.128758846477
96.1511508889897
96.1514877098653
96.1305807716437
96.1357120321697
96.1329637617262
96.1185610020776
96.134170651821
96.1850185293582
96.1991236552702
96.172261069392
96.1418651873419
96.1809942859218
96.202876087075
96.1895298405767
96.1927574605038
96.2147846362383
96.226886608906
96.2518785196776
96.2505896937876
96.2554146340645
96.2577573097633
96.2426774213183
96.2096307534791
96.2323499553298
96.2606099279792
96.2638685500893
96.2749091518317
96.2793823216447
96.2852992537337
96.3072067072111
96.2963617568636
96.3105414193079
96.3346261051143
96.3331744131454
96.3129414428976
96.3194036866743
96.326038893106
96.3259809503383
96.3424864031327
96.3867068725469
96.3823168958743
96.3723826673897
96.3732811672587
96.3763705577432
96.3936098363688
96.4128700226736
96.4057754009374
96.4108592688259
96.4158142189539
96.4254450935446
96.4023470473169
96.3837426397705
96.4184113494225
96.479150746897
96.4769707907987
96.4656489990873
96.4593288929311
96.4512080919714
96.4488442481765
96.4667568757536
96.4579518171195
96.451518428669
96.4739193188743
96.4875083429719
96.4924194279694
96.5182682478847
96.5202900085743
96.5196933790043
96.5264685099194
96.5360080628031
96.5190053679088
96.5272085857429
96.5384184231723
96.5377086135972
96.5354228990291
96.5628924592567
96.5567008957473
96.5528927423116
96.5710489493872
96.5747125957976
96.55474346118
96.5628386854323
96.5698534771592
96.5828288806193
96.5987450323941
96.6082253288846
96.5978023269983
96.5843767544255
96.5676098239235
96.5639033704265
96.5686349860122
96.5892338402036
96.5823833497906
96.5823469111438
96.5939682476567
96.6183656936752
96.6112986266284
96.5783031081176
96.5545560684701
96.5553079997989
96.5505642708245
96.5664283574945
96.585595454532
96.5666479309919
96.5341859227016
96.5177800708641
96.4936723167048
96.4707032895543
96.4529879261575
96.4317863395542
96.4093468753409
96.4268020008887
96.4337937127555
96.4052868450603
96.3995063692543
96.4286006234395
96.4181805368872
96.400175605609
96.4077996847782
96.4332402032349
96.4243897653073
96.399376800244
96.3821017704587
96.3504363070906
96.3220964195691
96.3396928988297
96.3550178583339
96.3385762066286
96.2791863019914
96.2433479847496
96.2392127353164
96.25494389215
96.2536290297768
96.2433793413878
96.226841146447
96.2042231865916
96.1660644411219
96.1540946673668
96.1549006848451
96.1432375888834
96.1129619463897
96.0948919679151
96.0987388260231
96.1325853649321
96.1339784619901
96.1319446048305
96.1064402006285
96.0739170749754
96.0744206100842
96.091826567902
96.0780816416123
96.0661495899434
96.0767525110637
96.0787513246568
96.0542346299376
96.054831137001
96.0667013450959
96.0755572010977
96.0373716959534
96.0062012908364
95.9853333692503
95.9635776258638
95.9504933295096
95.9371281436067
95.8973200380593
95.8742984616824
95.852477753801
95.8396692463811
95.8124144639059
95.7821808209469
95.7664626724427
95.744093074782
95.7021215538099
95.6842688781026
95.6719666457083
95.6206744624263
95.5618652865082
95.5486566005783
95.5273498680388
95.5043242264925
95.4812724706875
95.4530712221039
95.4310301228317
95.4444121837005
95.42101860436
95.3890900664165
95.3730557290695
95.3632537424792
95.3411673813218
95.347130781958
95.3627717304476
95.3536705231244
95.3529610365082
95.3805548283428
95.3617145708618
95.3547918013061
95.3707927018215
95.3791482062367
95.3749771925504
95.3800052735649
95.3743778188439
95.3870924232587
95.4046451211019
95.3946558220696
95.3816204102771
95.3946062368508
95.4134599675146
95.4061569112327
95.3862628147552
95.4207546777363
95.423138234517
95.3897970404691
95.3966377283899
95.4142703686707
95.420038905693
95.4441627030379
95.4451231723755
95.418839342438
95.4070812931704
95.4408463464352
95.4556068866762
95.4501665092233
95.432526845736
95.4218653482364
95.4377823257985
95.4747256057805
95.489453590534
95.4993894019853
95.5071100756523
95.5287846232437
95.5260661050355
95.5195182400374
95.5263333018346
95.5473688293559
95.570739221361
95.5908960074066
95.5994599999159
95.6157082312871
95.6127434476726
95.6183371111156
95.6415124487527
95.6702373673716
95.6792596701594
95.673926246214
95.6696093232727
95.6967101091317
95.7186142286188
95.7469723825553
95.7718341250246
95.7676357752614
95.7624816154402
95.7932069849335
95.8240411089507
95.8495202533848
95.8664827412074
95.8743413264297
95.8718811291086
95.8855886631171
95.8991766073103
95.9072258978351
95.9161456926069
95.94095841983
95.9416654281031
95.9403430120922
95.9356155213383
95.9381639430881
95.9653159702678
95.9993306771798
96.00305268055
95.9944622673305
95.9951427564808
96.0039613214961
96.0087600057385
96.0237537016299
96.0376569359491
96.0648810601811
96.0590076510626
96.0463363949588
96.0550834612117
96.0719795757969
96.0854651819563
96.1053424354497
96.1031316713992
96.1034767989148
96.1070818273455
96.1292417983491
96.1334467945097
96.1393772088452
96.1569158512856
96.1480377177655
96.1516241054246
96.179552760942
96.1717379414395
96.1584451503023
96.1585254521568
96.1825745438502
96.1887296454086
96.1984007112143
96.2114745788174
96.2128871116963
96.2187769515448
96.230831856402
96.2302793182854
96.2488972108581
96.2648355922635
96.2742469697741
96.2723157348823
96.2639175407998
96.2375356126819
96.2178195015169
96.2269895120223
96.2481225340516
96.254252858809
96.2683504272667
96.2760750527674
96.284664564104
96.3003019329014
96.3151533290037
96.2966888689887
96.2877775276059
96.2932992803851
96.2907798213788
96.2912977946879
96.3142551801513
96.3434922375614
96.3570122009042
96.3401056392968
96.3247497032013
96.3125207426164
96.3159357802175
96.3254503859319
96.3383250545654
96.3287639538692
96.3088623969023
96.3126405719794
96.333489642155
96.3271259718895
96.3400488767375
96.353409647117
96.3461516934088
96.3239406927288
96.311709910319
96.322142453913
96.3439521708705
96.3350243487521
96.3309219281921
96.3390012377645
96.3474386373508
96.3632436088189
96.3765069822457
96.3680701180704
96.3564334072406
96.359582130758
96.3867820458084
96.3645459758134
96.3297618556285
96.3228727473375
96.3385099214042
96.343507332412
96.3408314814246
96.3502960616569
96.3817174273491
96.3916717551704
96.3841224087766
96.3710786838985
96.3551266572668
96.3443270350127
96.3517835552199
96.3742794011496
96.3986631738626
96.3881656459224
96.3737167205066
96.3780257110151
96.4097954540113
96.4185814636504
96.4031606346768
96.3817302510684
96.3902359336126
96.4103127137506
96.4053405445478
96.3895675241057
96.3906788826926
96.3850317325211
96.3969343883396
96.4067595037148
96.4116847475999
96.4173767071427
96.4043026760455
96.3935691951532
96.4091684756521
96.4280665630105
96.4370085642092
96.421620782685
96.4258550052203
96.4282067849358
96.4211391057382
96.4236649543299
96.4320783767312
96.4314759309181
96.4411829236951
96.4395057681283
96.4375925514024
96.4500761295299
96.4567280326762
96.4537517319038
96.4558037894907
96.4483973321325
96.4534717667312
96.4453606288568
96.4609037143862
96.4785795596841
96.4794757825952
96.4832188847588
96.4909445806769
96.4784470666642
96.4683279091335
96.4679043148403
96.4956166939009
96.5127390649679
96.4910527382542
96.4673154396628
96.4725381753603
96.4729687476198
96.4724876391415
96.4841299257365
96.5031635343846
96.515851070891
96.5182080056352
96.5060598507998
96.5171908192808
96.5218506499253
96.5079914804014
96.4894891848139
96.4732712134875
96.4759592691866
96.5000878003375
96.5048020997664
96.4949819524826
96.479525136294
96.4798418634207
96.4839926178772
96.482636049405
96.4788926156822
96.4934274489759
96.4906018767756
96.4768357834892
96.473246392897
96.4757908203959
96.4740771043279
96.4790721697893
96.4776212182512
96.4762456511697
96.4789643735492
96.4834608162957
96.4911630967196
96.5141959263351
96.5095872353401
96.5061640892064
96.5175872066043
96.5186838029111
96.5116079311415
96.5111019208801
96.5097551184782
96.54356133484
96.5549192523909
96.5397183824347
96.5503802975353
96.5897489352568
96.5956149626661
96.5709314888005
96.5765058770774
96.6083592119021
96.5952686950586
96.5783221346422
96.5941840088875
96.5930984922306
96.5574891242036
96.5702800901
96.5938983320569
96.6082856867297
96.620861933296
96.6283334165066
96.6008621079635
96.5780585345881
96.5830734424432
96.6280535099634
96.6433280952926
96.6250522692252
96.6136741506938
96.6089151110039
96.6084151797965
96.6378750982838
96.6474411697839
96.6575192569705
96.6667806508912
96.6634938877653
96.6522342318266
96.6690553892903
96.690419732798
96.7004965933504
96.6808726004785
96.6762091614277
96.6960863080819
96.711168842134
96.6911566940559
96.6919525000721
96.7181639614575
96.7482879328757
96.7522224853484
96.7428490276598
96.728984676549
96.7436721809462
96.7511060932215
96.7267572333724
96.7175210382978
96.7235412675969
96.728822704732
96.7492611963413
96.7460966871659
96.732353853388
96.7298390491504
96.7392873713659
96.7551727128484
96.7841222112657
96.7756801524204
96.7730519382223
96.7677939250077
96.7347107533569
96.7253414077503
96.7700853344218
96.782796409673
96.8056196138515
96.8309376590103
96.8087179904744
96.7756469836192
96.7792015996829
96.7900419827813
96.8051584438048
96.8043739099224
96.7923325206627
96.7839794724411
96.8280794179254
96.8741309314739
96.8979406622259
96.8445918902704
96.8108649474905
96.8336737368012
96.8383451763851
96.7836962753848
96.7640093902666
96.7918971789635
96.8414475228644
96.8510210168387
96.8561663223171
96.867069198228
96.8595261300491
96.8580763972284
96.8732077132161
96.8560153177613
96.8428030101244
96.8382700063581
96.8589379202753
96.8786996788497
96.8766193493393
96.8395063473451
96.8382265692745
96.8694145424095
96.9098526974162
96.8880774066487
96.8583859453588
96.8491363784015
96.836314781636
96.8467424221188
96.878239062425
96.860717173442
96.8439637685032
96.8387154847564
96.8407914793548
96.8194231097829
96.8343320561184
96.8707245491528
96.9107646706108
96.8953794885897
96.8549381310438
96.8206587767293
96.827515969194
96.8246596271619
96.8169039205226
96.8226266717648
96.8619220572174
96.8584122294529
96.8076539175037
96.7886239637595
96.8060839757864
96.8105634973257
96.8454680681963
96.8847626604038
96.892498909681
96.9024914462278
96.9098151444178
96.8951662085394
96.8898601378203
96.8489861762285
96.8403860010893
96.8780140209784
96.8823896316027
96.8605333652846
96.8512127800341
96.8595151082909
96.88478152719
96.8881125672329
96.8957656187122
96.9070190241584
96.9162553068271
96.8933145233758
96.8698480404711
96.8766995143531
96.9058207693926
96.9178468083142
96.9331566277032
96.9196940106646
96.9088988163587
96.9019227734573
96.8960383247398
96.8823068795885
96.8788859568337
96.9016483617183
96.9125481290734
96.9101353332519
96.9360313734169
96.9355198250303
96.9156524937481
96.8950543574024
96.8859703271453
96.8839366246765
96.9284661829566
96.9379642268378
96.890849893962
96.8813673723155
96.9023464670666
96.8900714979116
96.9274964348731
96.9491158235287
96.9328271590483
96.948896847754
96.9678260400415
96.9554278860636
96.9796067946886
96.9601917750112
96.9221225459609
96.929175833401
96.929490735781
96.9205206822343
96.9485453438388
96.9357818127116
96.9165830050457
96.8975251764041
96.8701987972672
96.8808506441823
96.9012679895477
96.9260892323566
96.952945465629
96.9559713573112
96.9637936905504
96.9655041264887
96.9729204163431
96.9801884742107
96.9792294635534
96.9484428035342
96.9732498723073
97.0273171834613
97.011539835446
96.9772483146067
96.9990518641625
96.9991672078105
96.9647340851611
96.9288587878005
96.9554963505675
96.9812427781724
97.0007407018278
97.0041593861384
97.0019629547512
96.9980814139548
96.9938869743556
96.9825781108834
97.0059031673626
97.0221582650608
97.0082271267921
96.9881051061182
96.9905405211091
97.0177905443953
97.0749072673705
97.0610263636275
97.0385149806531
97.0306377786524
97.0424506810491
97.0604733237053
97.0657439542109
97.0306182806241
97.0114911341937
97.0316806244188
97.054886715124
97.0349778435913
97.0174620637214
96.9977076617826
97.0318073286291
97.0585701752984
97.0470733094622
97.0131844258463
97.0231243384963
97.0471550329069
97.0581209158904
97.0362002482401
97.0203404574572
97.036111410936
97.0740846700931
97.0749327215941
97.0859788931357
97.1055666269168
97.0928997330042
97.0520502101233
97.0517193516846
97.0576169312981
97.0545394613202
97.0514076151365
97.0363131701988
97.056682778769
97.0758571346394
97.0371723685543
97.0314635191932
97.042423726294
97.0466266994265
97.0450291462373
97.0400066954436
97.0223738920613
97.0450762239386
97.074873495137
97.0563045821098
97.0318962293902
97.0365308367424
97.0340654398879
97.0555111936265
97.039114902238
97.0282370854369
97.0287305888245
97.0250736559755
97.015461179482
97.0348909033392
97.0336491582665
97.0405876397872
97.0249800941925
96.9959646074428
97.0103957410715
97.089080100574
97.1555398207126
97.1548565058607
97.035143342953
97.0336872706219
97.1698844800619
97.2008421550323
97.1113200242504
97.1451052304586
97.2116884301794
97.1680751422274
97.1470658517916
97.1462229277634
97.0673306663948
97.100895154367
97.1250235876597
97.1422277332714
97.1211724978666
97.1210803308818
97.1239273871633
97.0927188875245
97.0570605850972
97.1081517545004
97.1194825673886
97.1124805536376
97.1072320574383
97.1114551969017
97.0725772397311
97.0582278110185
97.0770528648045
97.1099387088324
97.0891162131574
97.0929551021523
97.1138062394062
97.1036539752483
97.0935579790486
97.1360364479304
97.1588035893606
97.1540499808422
97.1855214972957
97.1563426714313
97.1122147448009
97.083407676081
97.1266246306318
97.1281174870415
97.1290854798278
97.0311344825902
97.0320981053986
97.0205308795485
97.0823536561382
96.9233921129349
96.9742792788012
96.9636818170008
97.0438448977234
96.932553564711
97.0473640722511
97.0362405493651
97.0768356146606
97.0276695975207
97.1167344191406
97.0670098800542
97.0317585833329
97.0480109695707
97.0531285427777
97.0864396862862
97.0888642788196
97.1106951887604
97.0944565174251
97.1079879051303
97.1062064837272
97.069459587782
97.0835986774436
97.1264026383167
97.1832115882513
97.1762859931648
97.1719859907062
97.1400257855313
97.1707898457098
97.1959806116247
97.1889628916497
97.2087820957037
97.2315407703678
97.2207476412995
97.2022044454406
97.1824211367906
97.2033549865759
97.1691596547546
97.157387563874
97.204236535623
97.2524756701781
97.2609123689217
97.3024632659878
97.2959738273377
97.2788095461115
97.2814928790293
97.3252831889349
97.3537761525331
97.3417051658857
97.3524174195445
97.3888916307235
97.4331308150328
97.4491514058092
97.416770091875
97.4242413963614
97.4603639525038
97.5195045008587
97.5500177441634
97.5275991319407
97.4813487061484
97.5280665676536
97.5772300087085
97.5631510002229
97.5265165102494
97.4904631617202
97.5062157373521
97.5622595568903
97.5935327218585
97.6398308362557
97.6252883582592
97.6066534017268
97.626889616112
97.6497941368614
97.6406523233834
97.6776093987562
97.6869851720888
97.6883787017766
97.6927726814451
97.7124958424581
97.7194089189506
97.7205927217729
97.7218596592204
97.6680524283695
97.6374481398322
97.710745229547
97.739957033769
97.6712879416761
97.6830898981553
97.7589200968294
97.7745395061456
97.78578831843
97.8368581445797
97.8245787421197
97.8122170823435
97.8419072639227
97.7780820089179
97.7304040837194
97.7959048893402
97.8524428262548
97.8305335237746
97.8401060767293
97.8022420001398
97.8117714886572
97.8640827230751
97.9360771736371
97.9849239086839
97.9627921317507
97.9251024619904
97.9437719510651
97.9764456688068
97.952910146696
97.8636546514848
97.8761668901968
97.9663737368478
97.985728608665
97.978193700832
97.9979402763574
97.8950891673625
97.8254895765284
97.9126998685512
97.9148678981962
97.8087663193785
97.8746341765308
98.005204225054
97.9565540147203
97.9133891141956
98.0380712846614
98.0778022999477
98.0003197138887
98.0201135649752
98.0620212494044
98.1014569050466
98.1260874045726
98.0718630256744
98.0763929851746
98.0747922160267
98.0367684646683
98.0803331852391
98.1115685980904
98.0222839068246
98.0678299975056
98.162646632369
98.1761899880792
98.1706009865198
98.1042307672422
97.9918135898395
98.0461258026364
98.2625686320438
98.4451739292548
98.3308321640636
98.3314629788058
98.309690057899
98.2393057978904
98.1706284723317
98.238729921252
98.3837411516126
98.3838336581941
98.307380767481
98.341696825334
98.3268692983576
98.3475647337901
98.3704466831538
98.3157360978853
98.2061449033606
98.2179122499789
98.3338111994052
98.3645201985306
98.3795191928022
98.4115398237745
98.3662382413773
98.4315260168525
98.4806468853976
98.4902880629676
98.4831986760853
98.4924875075096
98.4971575702306
98.660321804513
98.7101542627952
98.7360077608258
98.6770181560734
98.7535824209386
98.7661981992311
98.6479909529387
98.5858204010472
98.4993592602623
98.4416823887838
98.4208635233813
98.3902359002346
98.3403241717555
98.2639245745739
98.1789516979834
98.0151236298642
97.9815430721754
97.9759415749954
97.9905274931869
98.0401058801354
98.015052307509
98.0080093779609
97.9593704575377
97.9227406530019
97.9544077237577
97.918027912097
97.8743934487913
97.9179403702458
97.8724835726738
97.7821035919265
97.7463872774545
97.7606209403446
97.7736129533241
97.736031937774
97.6664142671748
97.6302686359103
97.516661377933
97.4588843778253
97.5313256180755
97.5912131961764
97.5309031513338
97.5214735980847
97.5752477305868
97.5432913708933
97.5247103295162
97.5273511687596
97.5049622812042
97.4726423507197
97.4752209830055
97.5045216248699
97.4867816494212
97.4057893758939
97.4137523744512
97.4521497167059
97.4563455379153
97.4763121650069
97.4903678685062
97.4396638931242
97.4141198829441
97.4633247909642
97.4734446262571
97.4612092979218
97.4373596326899
97.4238501770263
97.4622301652575
97.4947813854209
97.4785862143686
97.4875131569711
97.5206887298748
97.4739214442627
97.4713010860189
97.5228028881155
97.5192911742137
97.4672391902084
97.4681540018807
97.4340082060199
97.4006535403158
97.400859482333
97.4338608594174
97.4699831531084
97.4349689790081
97.3939254174899
97.4292896735415
97.5112260569972
97.5001521665839
97.4497989101771
97.5158586452914
97.5761375313261
97.5425061059345
97.5333668024162
97.6217203207313
97.5904827583609
97.582265262345
97.62770621103
97.6058192443553
97.5923536659873
97.6806871043165
97.6976743968259
97.5800176474722
97.5781431400529
97.6195569614322
97.5686760011208
97.5404833040597
97.5746139157585
97.6209519588243
97.5856683657259
97.53313658247
97.5770371730477
97.6369524819839
97.5779526597969
97.637129968171
97.7364366700288
97.7382022016239
97.6774831079592
97.7268166844374
97.7243870761814
97.6533461024695
97.6508794662048
97.7166773020342
97.7920830266005
97.935358437048
97.9939850396182
97.9542447784976
97.8538840271327
97.8208639916566
97.8802147065476
97.9226866998607
97.8394230465598
97.7153729030654
97.9268645838734
98.065718038961
98.0293306165747
97.9714869415627
97.892169697894
97.8956032127562
98.030289268189
98.1535444190635
98.1148190059247
98.0995008210499
98.1540032941672
98.3470540849955
98.3943283937269
98.2352047892768
98.0750549360189
98.0254504940068
98.0071312981059
97.9750807870222
98.0083798022245
98.0890618850699
98.122248203049
98.0850127334038
97.9879698966902
97.9278901162619
97.9659605316422
98.1763337572443
98.1087921409465
97.9536152996634
98.0344939183165
98.1263711695232
98.0478625774562
97.9825462623588
97.9296543016749
97.8684897270901
97.8634864806702
97.9513894229829
97.8923832437402
97.8502613133968
97.8658686355723
97.9165900002521
97.9575102998365
97.9708141465011
97.8162298284177
97.7483953393314
97.8211289040707
97.8351453657908
97.8774675098511
97.892659355794
97.8619259301607
97.91866651442
97.8513118954013
97.6895140427286
97.7212261307986
97.8774765570798
97.8388327631047
97.7398113794011
97.8106173880094
97.8633677669571
97.8639088299549
97.8325666343276
97.879032221405
97.8454234728425
97.8217889289617
97.9018659944013
97.9363468035847
97.992829834601
98.0899941277414
98.08799490211
98.0168132001643
97.9544318866374
97.8876484442841
97.9975900269987
98.0785257323135
97.9903229605144
97.9104700162969
97.940323385084
97.9207906949915
97.8381705060133
97.8347697577748
97.8871363776111
97.8403821289089
97.9031862281394
97.9317841331896
97.8479252278243
97.7558854754172
97.7329565070233
97.7620370444556
97.7586924516718
97.7735217804362
97.7847681436635
97.7394639183488
97.7237984197948
97.7259590431639
97.7368817856748
97.7133316088273
97.7072986137053
97.6098563606688
97.6541803282726
97.7568134687086
97.6949440290728
97.6466061941017
97.6735115397174
97.6712029328944
97.6215263926816
97.60755112584
97.5850121367834
97.6262421678709
97.616404541058
97.5504153471042
97.5925801428044
97.5764997424232
97.4426716391048
97.4460629113931
97.501483771132
97.5533366496853
97.5773398865418
97.5700811504664
97.4883130763492
97.4451172581506
97.4154960796813
97.4065633667587
97.4841932228841
97.5549577079419
97.5590090316925
97.4658283236102
97.3650140904993
97.392145955161
97.4358588966675
97.4477176196812
97.4431258921817
97.4010876884427
97.3423351968132
97.4051075118458
97.4380136816587
97.3937404330583
97.4463612365741
97.4315954111218
97.4566640932248
97.3972053994324
97.3649223700632
97.3303092049258
97.36566421899
97.428397388372
97.4161735782091
97.4182501662135
97.4560424871704
97.4574300035484
97.432964290954
97.3958210119082
97.3721902894245
97.3688689546064
97.4074252972075
97.4080148588724
97.4024363826424
97.391886884124
97.3576803605327
97.3479832762657
97.4242420147505
97.4634505859802
97.4549376636238
97.3757719756023
97.3113443041566
97.3036672224456
97.3474258357666
97.352077621757
97.3563320253386
97.3439083053258
97.3541391043807
97.331465582124
97.3074978368001
97.3220229843969
97.358029174519
97.3717581467944
97.3871221180987
97.3463509306967
97.3504940845481
97.3819703755208
97.3712813115365
97.3979429397065
97.4151007024875
97.3835072733043
97.3467411277652
97.2453899764001
97.1547319622511
97.1386957410721
97.2136067836387
97.3022551800486
97.3386847010802
97.3428072605145
97.3931949192205
97.3838968776608
97.3669257374327
97.3588599513631
97.3778770416257
97.3544309320165
97.3301596768973
97.3377284121056
97.3680266449806
97.3577312327192
97.3913177274243
97.3750911842425
97.3893952979337
97.36577259441
97.355685249279
97.3729560543771
97.3290675245379
97.2620216127545
97.3375223120415
97.3667124192104
97.2673952619081
97.1575470419504
97.1753235266297
97.3205808373711
97.3672082652242
97.3586710580835
97.3341492089795
97.3253196364893
97.2907139543545
97.237675913092
97.2511855317679
97.312296047828
97.3166290645897
97.3547698027962
97.4039086392311
97.3313906642315
97.1869278827254
97.1433799366135
97.270836653562
97.4035984048731
97.3412436836651
97.2676662998839
97.2346226018353
97.2534111536636
97.2917599948857
97.3409164697233
97.3746545924903
97.3586434038373
97.3659309756852
97.3453419627131
97.3650678821252
97.377606718555
97.3788274398333
97.3694955325988
97.3911677686978
97.3647678811503
97.2920816934203
97.2780630707645
97.2817948443266
97.2771676918784
97.300359623398
97.3318165392769
97.3420941293673
97.3378084317921
97.3626662992754
97.3169692571923
97.2792482688679
97.2535093607273
97.2259027206259
97.2252907768958
97.2648894161554
97.2842473696074
97.2214633955178
97.2156432343455
97.3182873362527
97.2630461951375
97.2108583356165
97.0824269847503
97.132502608857
97.1945779898899
97.2876415979798
97.3474257231667
97.3881359310619
97.3811413479475
97.29725162304
97.2340157582774
97.2612486378762
97.30168469509
97.2280135087802
97.2102922092277
97.2044145384932
97.2449266610016
97.2931287483354
97.2967050664069
97.2039530710309
97.2369818191055
97.2461461270507
97.1469721119132
96.9695292175999
96.917338314383
97.1068165296502
97.1768150580702
97.1458551453588
97.1244253955757
97.1901003860584
97.2712107474311
97.2670469242715
97.3119537318829
97.2137401419099
97.056720511424
97.0756803834473
97.1564274211106
97.2272069735809
97.1838089554524
97.0876511077514
97.0998534358407
97.1128220781865
97.1239431233828
97.1697143469084
97.1220027391331
96.8454156752526
96.8178005860568
96.7522123441439
96.7030597919224
96.614295444095
96.6381332159061
96.6693730516301
96.6771811587967
96.5818765567426
96.4657249183788
96.4356711799241
96.4650216203741
96.2832150627414
96.1527317247303
96.1252879287346
96.1506105261566
96.1950423054013
96.1476022608345
95.8892410570705
95.5108434375691
95.4701684101572
95.6898909532274
95.6969936011997
95.5533199925756
95.5441583117125
95.564353936987
95.5615876277998
95.4921846926769
95.4535135055786
95.3785960719567
95.2904831054358
95.2406375849741
95.169645369761
95.1843732119675
95.1344876151675
94.9729171922274
94.6387370029511
94.5956595546291
94.7134834672013
94.6893302307852
94.6818548952481
94.7479963783193
94.9066114211983
94.9252756476071
94.8467345510862
94.7742344392105
94.8067824039898
94.7995924110534
94.6315077948477
94.5727787473437
94.4876112986428
94.5285115306448
94.6223128241962
94.7289140665946
94.5444182973429
93.9685650525726
94.1630298001505
94.4868250735966
94.7533133078912
94.5614825883653
94.3051239782489
94.5433074081921
94.8264594285184
94.9657163044459
95.0133673742007
94.9739216045992
94.9390039569244
94.8680701301179
94.8180859541818
94.9123714393288
95.0087236517951
94.8417044617226
94.4413638818165
94.3190910987379
94.8303943246967
95.1692409553725
95.2091312221861
95.2440702505205
95.3377803912751
95.3790824302068
95.4898160678607
95.3022805570252
95.0864656125195
95.2155939761286
95.4566407110256
95.4623719577977
95.3983039153433
95.4572585574862
95.2689886916316
95.2680725236427
95.3737311904783
95.5666064985657
95.6333835453757
95.7264608052233
95.7100883834505
95.4958265110442
95.4129250579667
95.5131741246053
95.641785884225
95.6827068597321
95.6938603961856
95.6616821699638
95.655837230016
95.6062809521672
95.4013501157532
95.0675156827225
94.5493984686437
95.0219323556739
95.4733378957002
95.7496329956747
95.7305493093795
95.5705358727138
95.4119444790048
95.1513842466303
95.2920547633062
95.5421872187021
95.6737085737639
95.6912330790623
95.6860630997518
95.6653224821635
95.6495498331301
95.6334698626764
95.4824428531083
95.5255394615271
95.2603909858141
95.0543985208848
95.3297060710295
95.6066185684867
95.7012512559882
95.7271556041841
95.7274133213052
95.7679851446528
95.6413184668689
95.5214457730424
95.589301759969
95.720529781227
95.8074686206403
95.5941836145821
95.5144779459447
95.6316100223228
95.7471832249412
95.8105766454422
95.8312112711446
95.9070856413053
95.6849418774174
95.4280973084514
95.6248613664211
95.8245769243108
95.9497577673335
95.9779244475465
95.9989945804411
96.0194099143272
95.9657876570358
95.9463051700919
95.9569205081548
95.9462759951929
96.0017375171226
96.0628369180371
96.0896981718994
96.0417375312666
96.0602968353618
96.0791783376762
96.1238886314697
96.1338209396964
96.1660195509974
96.196417100582
96.1834332717419
96.1883556407036
96.1684094130016
96.1547016596309
96.2062129747715
96.2187902232606
96.2414331217399
96.2311426759836
96.2266626388206
96.260209919202
96.2942142112059
96.295225020101
96.3015277936226
96.3025260466662
96.3069525227901
96.2922245841587
96.3063012504224
96.3223795639857
96.3309563729948
96.3152659980944
96.331888918459
96.3191479363784
95.977382267695
95.9482095811462
96.1575639841279
96.3156750402204
96.3627822303571
96.3938346849523
96.396797265425
96.0871027250737
95.9811344966221
96.1571753539486
96.3281580681299
96.4060159371773
96.2823486414314
96.2413266706039
96.2910954976864
96.3245422401392
96.4014440989055
96.1455658631344
95.8401966507745
95.471170203621
95.3665104154411
95.900911210017
96.3436793040497
96.296434658722
96.0865017366255
96.2036638935176
96.3144874712622
96.3783997477256
96.1365412769138
96.1171823961058
96.2296010039546
96.2982131454505
96.3617298105206
96.1712548902805
95.9848786252922
96.066978077944
96.0123538615327
95.9278135475919
95.9957730665709
95.8551228010306
95.5941540583846
95.8568245480402
96.2739434329334
96.3835963311553
96.4690151587904
96.3557894510768
96.0267388503104
96.1040652605952
96.181405933252
96.3467712075686
96.4481494507084
96.4138560210696
96.2457495437139
96.2658250499883
96.2734981380372
96.0958158648509
96.2836312786724
96.3066910215992
96.2684782427121
96.0103336008782
95.873216395117
96.2160740741798
96.5304665493811
96.3725916562962
96.1935845645344
96.2606672252374
96.2820952595481
96.4958261629645
96.5434544219436
96.4003514645061
96.4711511648514
96.4329251207656
96.4218115758162
96.2968655271161
96.0327876263441
95.799036764165
95.8065257776236
96.2789552215274
96.636372712542
96.7275279740364
96.6836716316492
96.667926808271
96.7533703134315
96.5194887325622
96.5322416354981
96.6045827024524
96.3711785330691
96.4858509329326
96.6595022142987
96.7109435597442
96.7774417877803
96.7485610214665
96.5617754603441
96.3119051954447
96.4279423100205
96.5116430298309
96.4485400437579
96.5163129523152
96.5891594334153
96.6290668836426
96.589220553884
96.5430559724124
96.4216790863031
96.3983855031988
96.4200692419333
96.4138521269722
96.4678694237312
96.303314775969
96.1445229211031
96.3324206615986
96.2255558698919
96.1356743801167
95.9225684747886
96.0324007198512
96.223099048286
96.2818155940993
96.2814431674907
96.2076474206913
96.2246036769546
96.0919460832054
95.8095520367348
95.8652909724632
95.9059385589744
95.9110299869068
95.8500357421954
95.7663966762131
95.5030294927338
95.3869110197088
95.12785264469
95.0427787721952
95.2345910644873
95.3388102367826
95.4478707122487
95.4143807613311
95.3767792678087
95.3502363972331
95.380453995694
95.3563776931961
95.1470965230366
95.2075675972403
95.2925432055771
95.3298325933984
95.3383139503035
95.3546310035585
95.3589414279913
95.3355721366486
95.3158974009872
95.2739564035012
95.2796544152169
95.2280530786415
94.825783208231
94.8384631786167
94.9912419013978
95.000782877473
94.903159739587
94.8664793050324
94.8329295009279
94.6005763265564
94.5016513057925
94.5717815172798
94.5900249707492
94.590872378885
94.5889707056132
94.5228417391702
94.3628462100416
94.4767158838977
94.5332321627652
94.6829063873156
94.4939015709482
94.2750455026449
94.5054767802484
94.6180395420519
94.8249493344551
94.9698724758843
95.0629371877251
95.1049496877829
95.1158972784664
95.0929267834849
95.1205953361317
95.1367584099451
95.1778711948041
95.1932447909037
95.2202933735044
95.222662749595
95.0596009853066
95.0926884660542
95.2115838502
95.2675493275315
95.3013189213695
95.3396487283919
95.2092991144985
95.0932407228086
95.1581626827765
95.2927048292675
95.2904635321728
95.1074522903406
95.164565870788
95.3864301220755
95.4598019004918
95.4886979898813
95.4659431321742
95.5089141144775
95.4585857005425
95.2265487497832
95.2545491867984
95.3443622974149
95.3731636524423
95.3492538691709
95.3126603387921
95.2368321689336
95.180765303442
95.0954392403559
95.0213643433763
94.9123493801323
94.8466498949642
94.7753230182394
94.6255344430295
94.417677686565
94.298705312576
94.2876753016189
94.2094571259614
94.1490160994162
94.1087110621045
93.9979123933168
93.9590974582642
93.9968548825153
94.010969769055
94.0148955718494
94.0035526396372
93.7703016209401
93.7479947801817
93.7622987602084
93.7886780822088
93.846383030357
93.8608592225068
93.8704270739134
93.8786156205558
93.8782298239685
93.8559733319756
93.8993258595407
93.9555002887411
94.0028652508911
94.0690911433489
94.1237474259905
94.1554215185432
94.2066025731174
94.2442737762066
94.2420762949553
94.2167016273451
94.1650297356642
94.1075111888975
94.0229038476494
93.9542301950425
93.7920052124635
93.603597675278
93.4610961477949
93.4481301466648
93.464362603102
93.3948041524411
93.3902583452129
93.3522181547158
93.3295949576497
93.3345507087512
93.3824646390566
93.4262114240326
93.4895382783381
93.5412373943805
93.5953698114082
93.6381600155678
93.675418788585
93.6828027030506
93.6769315261531
93.6287761232411
93.5867481442622
93.5139914123541
93.4187059231534
93.2633469114556
93.1391039104855
93.0378983271776
92.9069935991027
92.8217038332496
92.7273018602408
92.6697456573327
92.6266667187054
92.6507307536244
92.7335720167908
92.8160178616654
92.8944750231139
92.9596414545772
93.0657682658904
93.1928225509578
93.3103411316661
93.4186885293997
93.5183069465815
93.6132136443474
93.7157212044593
93.8091533170182
93.8911268965298
93.9724927432899
94.0552589514744
94.1170401029881
94.1745107232821
94.2304730954403
94.258544118629
94.269040527977
94.2795222906441
94.2868299159197
94.2842259404401
94.2970237388162
94.3027154560904
94.2866899600556
94.2878879883009
94.2889904839807
94.26816748351
94.2429546698274
94.2022778942815
94.1426306362956
94.0839198633884
94.0414706967097
94.0318240241577
94.0401185760261
94.044122827445
94.0688503169924
94.0966781649296
94.1111181093681
94.1284189106153
94.159168849051
94.1646856803096
94.1927491679555
94.2354270710397
94.2849422179162
94.33286047771
94.3601760247974
94.372441094188
94.3903826695468
94.4142148224038
94.4392225915217
94.4525054254282
94.4600972626512
94.4651094104597
94.4798213152938
94.5082303632551
94.5284620017551
94.5465467078721
94.5595963858425
94.5724814292063
94.5776612211093
94.5807785565043
94.5807305184578
94.5751686037913
94.5555241621253
94.5446856525412
94.5282755775613
94.5112623103014
94.4927315009595
94.4854978301714
94.4850349837148
94.4939026755125
94.5216931816732
94.5519607745542
94.5670127321433
94.571606842343
94.5768239572831
94.5687926100415
94.5511407351796
94.5369111947942
94.517775337015
94.4960992254362
94.4941523669674
94.5171368689444
94.5442630684838
94.5784682215264
94.6086638776035
94.6421874727246
94.6736310503195
94.692328538669
94.7176578523591
94.7480124761755
94.7807159296481
94.8211492121127
94.8650247089253
94.9074271609028
94.9476986412308
94.994048223257
95.0367517761771
95.0734769029296
95.1123516746863
95.1512373165608
95.1820059661797
95.2114030207055
95.2249341844648
95.2102959499306
95.1799856250777
95.1335814466412
95.0562652973877
94.9525649227095
94.832183654366
94.7222248332326
94.6405316423041
94.5804317716872
94.5378870764425
94.5189886403621
94.5032921038971
94.4894070518046
94.4984903507911
94.5200402970224
94.5315309920562
94.5618724019158
94.609531983392
94.6600240854136
94.7210287089036
94.7866674578786
94.849045259233
94.9093935410333
94.9667907699649
95.0231325467387
95.0796123500137
95.1295412043174
95.157760760153
95.1862400986442
95.2200841625091
95.2451847524589
95.2575830355967
95.248241649934
95.2288818199515
95.2143305762999
95.194191944561
95.1562616991965
95.1130767717569
95.0636734530114
94.9944318349481
94.922774442253
94.8292082639216
94.6992480625822
94.5534126445206
94.383867068051
94.1693104462971
93.9161463866836
93.630330934043
93.3116616031948
92.959763770038
92.5853859676801
92.2139448956975
91.8596806374203
91.5430278958117
91.2906349101662
91.1076125858856
90.9984939520186
90.9644935758998
90.9931001426154
91.0624631358843
91.1691841377992
91.2963454916185
91.4205987790072
91.5527094661108
91.6939537311822
91.8410966664433
91.9901688071468
92.1286359891673
92.260135728493
92.3846641967991
92.5023562356721
92.6299850352808
92.7815008652249
92.958258601786
93.1340790993555
93.3058280700957
93.4798161614401
93.6366448616691
93.7749247686745
93.8891493593271
93.9719782193536
94.0044179413958
93.9916587460675
93.9528042983046
93.8863770556499
93.7922424849365
93.6874255890189
93.5851489381181
93.4860890999575
93.3731800518912
93.2223726713517
93.0315956297282
92.809435244883
92.563273435167
92.3084091495958
92.0641472390028
91.8514159557159
91.671997636296
91.5152468954707
91.3515005434128
91.1713015099914
90.9575693835852
90.6854022979582
90.3552395108749
89.9818843073586
89.5645695747042
89.1309720442505
88.7347922704858
88.4109656172142
88.1773739924307
88.0417204285947
87.9926686211462
87.9982609356439
88.0131916161036
88.0207770969438
88.0109265375678
87.9939609535507
87.9907201601152
87.9977733111341
88.0208418072875
88.0893065794997
88.1947297105269
88.3232728706607
88.4689322808043
88.6177106196334
88.7688635388042
88.925255289667
89.0890963975144
89.2394009639112
89.363788629654
89.467170240069
89.5527795578092
89.6174350455856
89.6668148837213
89.7109164148193
89.75416007873
89.7939418622086
89.8168741615124
89.8255206294914
89.8200525600862
89.7868403012
89.7159037658412
89.6021119989785
89.4402288481495
89.238581711642
89.00357586698
88.7704115282759
88.5687514289882
88.3894324555585
88.2336620470475
88.0989820727981
87.9639046425457
87.813224514319
87.635557113884
87.4244099107726
87.1762642238233
86.8798009084625
86.5282102277282
86.1334520083569
85.6795210678743
85.1516151703841
84.5819701004777
83.9966354440639
83.4105090992865
82.8692210249331
82.417792816546
82.0545256563505
81.7780542258126
81.5801639756447
81.4198706769952
81.3078736064244
81.2586404594716
81.2601129037053
81.3276031195647
81.4573020220884
81.627308884278
81.8415406531362
82.0826322082206
82.3378238562028
82.6001775094791
82.8511285959013
83.077396163901
83.2515249222321
83.3589695012751
83.3736729925389
83.2767942856296
83.0976119791235
82.8424097565284
82.5098984952733
82.1271199338009
81.723780307305
81.3261598325975
80.9704236993133
80.6807099522053
80.4641011894844
80.323378669041
80.251901881127
80.2263764533373
80.2382920053307
80.2823665725551
80.3481695120621
80.4299944161638
80.5253680677085
80.6300091866157
80.7353841981481
80.8374737084235
80.9388816800978
81.0349390374121
81.1257935026452
81.2030847201533
81.2642775305013
81.3076937683033
81.3256659534319
81.3341540207123
81.3301876061519
81.3364140309569
81.3829220113605
81.4436259291667
81.5062294423733
81.5626813433322
81.5869496382186
81.5886230669316
81.6070118976351
81.6352347626286
81.6434609792076
81.6122464203976
81.5406846297405
81.4523804010057
81.3697869009309
81.3032365744029
81.2418899917538
81.192545453729
81.1907343971451
81.2287804715294
81.2785721637322
81.3541318288052
81.451921535728
81.5440626012717
81.6337494458071
81.7188521366469
81.7934394915122
81.8307109003234
81.8152324595501
81.7594083700966
81.6701386793443
81.5834940501221
81.5292623041201
81.5081573602801
81.562843651204
81.7053880012899
81.8967758577117
82.1183171423018
82.3665263849377
82.6170494605349
82.8465449667361
83.0788555489276
83.3161448783918
83.5379451922835
83.7449626582269
83.923506359506
84.0933981758241
84.2631591485522
84.4206754429007
84.5613919452224
84.7147022419076
84.8644600885794
84.9835277965345
85.1092869614529
85.2493387166958
85.3825395260379
85.513775914876
85.6620565791743
85.8213524870106
85.9640396553478
86.0954725808026
86.2469722065326
86.4071364851474
86.5472172966703
86.6677024951918
86.782682266586
86.9012476518225
87.0186008818711
87.1359847130612
87.2465091434503
87.3571420219506
87.4628361005133
87.5807522422939
87.7099362943198
87.8007651742498
87.8820588179725
87.9829615351581
88.0779072193722
88.1575728803584
88.2343853074527
88.3259785271443
88.4020230338928
88.4656875341945
88.5421384180465
88.6074103218925
88.6632499836928
88.7295045418931
88.8034432210439
88.8735377869629
88.9339833076883
88.9808758282915
89.0268936045467
89.0894932021926
89.1527181375952
89.2110980767084
89.2617406791549
89.320051697793
89.389036280401
89.4360150658189
89.4865160553375
89.548782090513
89.6041602647022
89.6818159254105
89.7519345066566
89.7894261595173
89.8029715177733
89.7998756427817
89.8171982413901
89.8440651178194
89.8476641848959
89.8409594551704
89.8391176941746
89.8297984000223
89.8256337473694
89.8433400295485
89.8435890256193
89.8182602198887
89.8015839465153
89.7854619703278
89.7478460225506
89.6971682185681
89.6652170735061
89.6529934467449
89.6265737894912
89.5938800954705
89.5833571275442
89.5947826284945
89.600465517014
89.6028212949213
89.6174065068486
89.6503202212234
89.7024196219458
89.7506665773146
89.8041587944017
89.8664091979181
89.9230432245824
89.9895631670354
90.0634885317442
90.1402425864124
90.22472616815
90.2924135008927
90.349707983658
90.4243100196599
90.5017493617071
90.581066484003
90.6574217867503
90.7168842410335
90.7498402833383
90.7771812538501
90.845261599294
90.9230570901974
90.9742030500428
91.0087779117835
91.0501883485194
91.1208760294473
91.1888768040689
91.2335588966735
91.277886280381
91.3247979013245
91.3302614180874
91.3457238647756
91.4200296018875
91.477699310967
91.4993204052272
91.5311957504661
91.5575637332842
91.5567409137955
91.5886689901561
91.6682160736529
91.7137109296608
91.7350218456878
91.7518654891992
91.7819391948778
91.8262295724015
91.8342320713387
91.8388179694036
91.8822926644608
91.9024778493831
91.891305245651
91.8938813658615
91.9208436290935
91.9623731771049
91.989871068691
92.0179209429083
92.0364766822999
92.0449008928294
92.0547845161919
92.0587997717096
92.0974019718946
92.1523864921821
92.1552340464038
92.1465039884329
92.1720519662162
92.1870719989958
92.1812751661413
92.1683126316021
92.1758149488424
92.1927982143103
92.2154812589768
92.2414711042148
92.2444985273952
92.2709097949949
92.300293820895
92.3093093087058
92.3443235709968
92.3795425388697
92.3660508947203
92.3495354901484
92.3490374291482
92.3498168497454
92.3783789357869
92.4003831835651
92.394196832099
92.4015623174533
92.409971421362
92.4129542955519
92.4183157559177
92.4038589893121
92.4085842109252
92.4493592317811
92.4547821554918
92.4297285886711
92.4386465330479
92.4399183522629
92.428804242206
92.4283954056947
92.4129733021151
92.4303608548426
92.4547987286122
92.4629182714612
92.5025973883358
92.5110145871406
92.5102625461554
92.4856931238724
92.4362194712674
92.4384502352432
92.4572074975812
92.4793917709972
92.4866171957743
92.4473625595369
92.4433526657696
92.4446496743202
92.4232649801109
92.4338182445712
92.4291192330936
92.4224883123989
92.4388032435877
92.4275454030218
92.4355849297149
92.4454379121248
92.4364190153694
92.4491402764486
92.4628115314628
92.4445783112652
92.3908973066464
92.371602629277
92.4421496371549
92.4900717337095
92.4621010200799
92.4163884037253
92.4268287345063
92.4419247930386
92.4005643996408
92.3789298600418
92.3893881006991
92.4154047962049
92.3953477830376
92.3168931765948
92.2824057817847
92.309408119362
92.3126870740765
92.2924443783054
92.307520109718
92.281693991488
92.237614003111
92.2286294082095
92.2451156594157
92.2413813393004
92.24721590228
92.2274127697483
92.1828176760898
92.1720022625867
92.1664791130665
92.1550172880536
92.1702070725623
92.1824580754087
92.1452710138848
92.047935411984
91.9847920356687
92.026486741413
92.0284608800797
91.9927546754673
92.0345700922287
92.0168132602162
91.9620066670392
91.9593799918858
91.8628837235321
91.7937300010605
91.8480476336506
91.8155539362626
91.7936307569687
91.7570751981708
91.6255689603943
91.5591148770566
91.6251378779504
91.6524562779517
91.5580576971991
91.4256707676129
91.3034038038727
91.1979176222424
91.1274247189024
91.084784865551
90.9692201188463
90.7933724159365
90.7291922773485
90.6931092904861
90.5249100535737
90.3262410422226
90.2097980583842
90.1405996839086
90.0973153617218
89.9638053945327
89.8539901801842
89.7620963041584
89.6093964108772
89.4341183804236
89.2554293894316
89.1841155714703
89.1951080507674
89.1021149657466
89.0353578431865
88.96529930299
88.8554007456652
88.7657761304166
88.6759011070188
88.5862179054707
88.4883983954291
88.5755251662827
88.7799992576585
88.9095233872122
88.9023699413429
88.8681722922821
88.8316309077042
88.7792015147428
88.712196267166
88.8030647526328
88.9417804430398
88.8835502322356
88.7443170434086
88.8084752131147
88.8418395429797
88.7931115798868
88.7343307379717
88.7388253565183
88.8112129770966
88.6424385152221
88.4754700868442
88.4346194698165
88.3299969280104
88.1774008721547
87.9447727816695
87.8360863321448
87.7806470196072
87.5168739141876
87.2810186113653
87.1498165349202
87.0026948167146
86.7831470000829
86.5320570476173
86.1463787731194
85.8101592815936
85.6737755332927
85.5671440167962
85.608111767126
85.6899931184952
85.576434906055
85.4321302854877
85.3476319271726
85.2990589090597
85.3830502237834
85.611757447574
85.9309141131197
85.9249318588224
86.0187466331178
86.1551758564165
85.876510495227
85.7539017072975
86.1567177933581
86.525659220983
86.3076611415642
86.0266712468066
