3596
4000.36533379555
650.420452594757
1
128
2
98.2346880518351
98.266508405394
98.2263670840894
98.2208082675661
98.2466874024626
98.2519714351255
98.2322525163401
98.1918827819777
98.1871386921151
98.2171283599504
98.2227152272426
98.2367365692556
98.2297755237395
98.2772276321972
98.3044528767666
98.2819504873111
98.2529398646883
98.2361135295845
98.2276571133058
98.2483990532767
98.2410522831834
98.2500823537363
98.226995267614
98.2146409726283
98.2344357345557
98.2441823317461
98.2159019620135
98.2196955858762
98.2505081787087
98.2859948083156
98.2741184686973
98.2242086274253
98.2182202365837
98.2325990550067
98.2054126167548
98.2260978474364
98.2865412741155
98.2983489774719
98.1893647828152
98.1715964998633
98.2452564446616
98.25435015902
98.2579171873722
98.2629471991437
98.2186035619017
98.2238359528737
98.2619999135458
98.2668277444124
98.2161039876194
98.2316402962073
98.2603040838138
98.2287353155457
98.2494557468276
98.1870557328297
98.1092588117656
98.2138243835281
98.2551752389447
98.2957183377253
98.2737612183188
98.0905850577604
98.0824277285017
98.1378115077114
98.1263055686998
98.1892730500054
98.2234030482675
98.2489109155269
98.2627783003075
98.3174075015939
98.3234270512593
98.2929761778633
98.103262529784
98.0430967889953
98.0603955034531
98.0968959329025
98.155518566785
98.2223731160863
98.323229763742
98.3061979243722
98.077360722916
98.0364884889579
98.1427544252337
98.2753648827197
98.2932127468447
98.1396776618377
98.1246836650326
98.2983487297717
98.1123025461992
97.9225127987896
98.0052076170474
98.1582750730227
98.2497524943542
98.2574317445927
98.2171016800678
98.2500416505428
98.2586483379545
98.3179000607323
98.3789064876597
98.4359717878643
98.3937358534011
98.409619118366
98.1231769396915
98.0156971714791
98.039160715813
97.8575205347467
98.1886194820029
98.048967617097
97.6786159847789
97.8533327397379
97.9879673942578
98.0681927279544
98.1567726313737
98.294408058171
98.426375354804
98.4306853118139
97.999787862671
97.8690758127539
98.0438241839471
98.2719616922355
98.5141248945672
98.5420964577712
97.9971360008068
97.8946848267613
98.0449533198652
98.1150033692319
98.3746128686061
98.2860961878877
97.7840833965877
97.807389084684
97.9988329588411
98.1190477671017
98.331344145928
98.5308925260127
98.264084676112
97.9224380815167
98.2077226740101
98.517042899915
98.4380235379229
97.827422330342
97.555451927687
97.8971161432541
98.2315308045308
98.4491895323388
98.0987006331281
97.8716814326797
98.1727328682263
98.1559721524976
97.8508334940109
97.9835079850327
98.206807406653
98.2930240583174
98.2730280449594
98.3237194769215
98.7530341793028
98.9329816014182
98.1583188665837
97.8187420713255
97.4898313252364
97.3656376568803
97.7869981871491
97.8963528640845
98.0535701707624
98.1252071323623
98.2473963439607
98.4392383998047
98.5004003303801
98.2584350191942
98.2601103266679
98.4343558184687
98.2572252146787
98.2183526017757
98.4676066167884
98.1772365292194
97.7182774276925
98.0110456580305
97.984284779221
97.8537815708449
98.1482226076884
98.3364866509568
98.0562955738643
97.9508970211829
98.1453763554048
98.3050161074224
98.4257104495908
98.3121892076339
98.1668309983583
98.2214929157773
98.318060584197
98.5808971501237
98.7355361324327
98.2439060717126
97.7008057333224
97.7465184709086
98.1208744971445
98.5456858280636
98.5260204981244
97.7796260014942
97.7445456345783
98.0534919024215
98.1706658207204
98.2677915960629
98.2959259472092
98.3686063314659
98.5460730912985
98.7627942365875
98.5380044898327
97.9370737396943
98.0044907671077
98.3025989204571
98.580006801131
98.7685805250569
98.4646821900041
97.7839580565812
97.8214192576199
98.1520584559721
98.381296791807
98.3331792154528
98.0318621551709
98.0677928898909
98.2126331906718
98.2549499375902
98.3480955191171
98.4175048653502
98.468910125434
98.485689813634
98.4726688588011
98.4902754799309
98.5106641847572
98.5189263682122
98.4236601244085
98.3011097460813
98.3132697464137
98.4148640226083
98.5399371435498
98.6009132216381
98.2877481656018
98.1200570641447
98.2232992367894
98.3135385149455
98.3652974062082
98.3824935831805
98.411698540679
98.50943141171
98.6816823798809
98.7475671927256
98.4533244797137
98.1140411402149
98.3126237594027
98.5480926903933
98.5810452331423
98.2235507498593
98.1839428895882
98.3359043571127
98.4354516561837
98.5560179881373
98.6865536670557
98.4324591174867
98.1404793700912
98.2799346301421
98.362440558422
98.2044189239768
98.3021895116492
98.6628883579111
98.9318671997146
98.5195979679116
97.9959445555529
98.3706817310777
98.1519507221217
97.5118424606286
97.7832827270615
98.3473651142714
98.9960791949632
98.702662545117
97.4794934891648
97.6025836123344
98.1336196826939
98.1209011255862
98.0790673553082
98.3482759235576
98.4737508397945
98.622822047834
98.4622214651576
98.2256120345934
97.956137216866
97.9323286980455
98.3048194780896
97.8812250951188
97.7304485063503
98.0470875509134
98.3432262967949
98.6130674501109
98.6579101427313
98.3605438700432
98.224512583531
98.3312569972772
98.5906909062972
98.4785944603347
98.0965662296411
98.2722309366366
98.4574444398643
98.3141698604748
98.297127883683
98.4671321029929
98.4908957319417
98.5166125482173
98.6633123748075
98.8371576322932
98.5538939082334
98.1276564368813
98.2551376437087
98.2160110177242
98.0011632937077
98.192717232651
98.3898251862146
98.4279009988444
98.4709414863278
98.6404480097762
98.7628225985589
98.6358455659769
98.2831785130194
98.2627743568818
98.4051064826766
98.5199376495091
98.5185665111185
98.5224836571383
98.5551432661698
98.5459733727445
98.5946341814416
98.7569967617488
98.8083459409459
98.5083315896583
98.5466843291438
98.704007263005
98.0507117467101
97.874093675837
98.2177515359612
98.3591036276759
98.368199757332
98.3787508477247
98.4931018225985
98.5744121720109
98.6848172388567
98.6027493149435
98.4564462568538
98.7220035242724
99.1334681712702
98.8679541761454
97.9148528083301
97.5935990334414
98.0691699489285
98.5989290883068
98.8693374712345
98.3354379646899
97.9751224745014
97.8760404825277
97.8844235964471
98.1308108119532
98.2880511645479
98.424697852937
98.4282968734912
98.4393961992606
98.4257012103334
98.4694077199907
98.465682957686
98.5433132304489
98.6806706472518
98.813507396287
98.5628122612024
98.1830535094593
98.2729409162262
98.4582501166858
98.6398047903847
98.8719096474237
98.7163475160986
98.3923723405485
98.0051480832781
97.8624211219923
97.6999521761255
97.5322734417354
97.8506569917677
98.110612767917
98.2446317665074
98.2395655696105
98.237789324647
98.2980136954758
98.4243964476384
98.4222413395034
98.2735569709128
98.2558120037534
98.3959652342775
98.5050964402293
98.5097560893545
98.2539060201205
98.3115798556639
98.6147413149406
98.8509814261404
98.5760336073557
97.8634210585476
97.5824301511274
97.8689610542658
97.9826714570093
98.0334610215435
98.1550141656598
98.2353328194298
98.3366492498889
98.3821772447447
98.4068695853261
98.112538915122
97.9049360207664
97.8683049015024
97.9028148438351
98.0468959041365
98.0456878829954
98.1929168666591
97.9509106132395
97.6857074598109
98.0369396457491
98.2347511491064
97.88406326697
97.798472159842
97.7842897456855
97.6567027500894
97.8584645925143
97.952824693805
98.0297661376574
98.0781460297517
98.0973167008308
98.0061162815327
97.9869272682607
97.9927346556055
97.9835068519039
98.0546785746821
98.030635969179
97.8769007301861
97.845465360684
97.8255544587938
97.7639154563627
97.9083639863571
98.0505475194522
98.1608695153339
97.9062317254579
97.7229183148331
97.5723922110785
97.4137770805132
97.6224548741613
97.7087263307343
97.7253030674034
97.7674485902979
97.8168607646685
97.8142368130752
97.7763679051226
97.8092601884234
97.8338422709498
97.7728404217512
97.7867981586728
97.805866860988
97.7691667346877
97.7480179620004
97.7273464849503
97.8021490666748
97.8800448034518
97.9374889379149
97.7595113113296
97.4687143417196
97.2385211476918
97.1644588500767
97.3186400638948
97.3265894940316
97.4142913923878
97.4647224130091
97.4423790386747
97.4545594789951
97.5144616270832
97.5181335799569
97.4623118715915
97.4949339203364
97.5663798784206
97.5380577357936
97.4442821309236
97.328209241594
97.2528628311074
97.315174190571
97.4111419032437
97.4343526890154
97.3550520278478
97.2014839911352
97.1815565262529
97.1952898292536
97.1647352656602
97.143667460529
97.1515466227885
97.2129150143918
97.2129124504394
97.2203762049125
97.3192251046198
97.3518457152272
97.1751690072874
97.0852415246484
97.1424860346924
97.1450511775436
97.1476971164205
97.1470225042352
97.0989919957333
97.0735577541876
97.07721032501
96.9588719626219
96.8852139898848
96.9206644584802
96.9924629752005
96.9943527596707
96.8984759828076
96.7692624682034
96.7900268615142
96.8612289054431
96.855426943376
96.798764724485
96.7697708620559
96.8070834238299
96.8379746702096
96.8419263687662
96.8475506282475
96.8550956770186
96.8554605042484
96.7979804447048
96.7176777551815
96.6739989983923
96.5896181631102
96.573092942835
96.5906060613154
96.6083167692492
96.5948880177711
96.5374310577943
96.4349522764271
96.401662877639
96.3386815078644
96.3139834919447
96.410708509769
96.4675472119922
96.4394916957225
96.4077308482308
96.4420158542021
96.4269694457321
96.341918408627
96.276127240211
96.2485294334975
96.247440981829
96.2008479054775
96.1548646602435
96.1016077669989
96.0443004619307
96.0436330510803
96.0836375120245
96.0924506118715
96.0383284177974
95.932941771727
95.8347720561536
95.8273876767015
95.8448969204484
95.7898028201613
95.7008397044567
95.7236992282223
95.7690097132631
95.7184523115407
95.6660967802315
95.6579839068653
95.5968498919256
95.6197929543968
95.6733304217916
95.6375218515479
95.6579166021231
95.6532935310992
95.5496934540453
95.5473829967278
95.5574260503868
95.5005999207612
95.4485754522189
95.3518344202639
95.3404253554164
95.3167893619489
95.273430036682
95.3167426077007
95.3235097856266
95.2503092448134
95.252633536283
95.2633311645344
95.1927154575226
95.1679505751848
95.1686249580726
95.1449896233377
95.0755207099072
95.0116508278266
95.0260483714811
95.0265300816912
94.9460590927927
94.8941746941949
94.830955401493
94.8533131845836
94.8869110386203
94.8479350222808
94.7952337449758
94.7929549871012
94.8264317909234
94.7931655865151
94.6900143055219
94.650966865191
94.6247901968271
94.6237807568761
94.6175697909325
94.5795828410178
94.5488290551053
94.5209129394557
94.4518222520558
94.4009214507429
94.4322731002854
94.4147440705901
94.3344132747943
94.310963306955
94.2775522438078
94.24889241808
94.2324473248002
94.1388839152257
94.0296432634905
94.017225422502
93.9728300669769
93.951407798594
93.9681517176152
93.9352746400831
93.8950070893753
93.8212484864455
93.7499197855307
93.7312636335088
93.6861584792145
93.6239260812812
93.5939338813448
93.5739706232188
93.5626705707726
93.5561514336423
93.5203985413206
93.4815461788316
93.4798645435915
93.4359526724132
93.4084764307179
93.3856157423143
93.3674751403936
93.336140977626
93.3123063495395
93.2704182480056
93.2531841730789
93.2670966774776
93.2380813324616
93.2016745936732
93.1577906004654
93.1448701870775
93.1455586500702
93.1158558114428
93.104751803654
93.0816880842913
93.0175115570049
92.9977934295194
92.9912904958568
92.9876527419656
93.0074731643163
92.9647715573479
92.9171008522408
92.9018953496412
92.8797906487173
92.8262506407612
92.8234673722147
92.8282568372364
92.7676054291338
92.6948570024691
92.6634521149563
92.6392271313028
92.5717638360334
92.5422272504157
92.5332125907531
92.5109457142838
92.4593855055871
92.3989854387992
92.3633904716911
92.3121418511604
92.3034277359334
92.2982125570828
92.2438176213028
92.188469290035
92.1519394111451
92.1184581261564
92.0669424479075
92.0092493804641
91.9480486064973
91.9116168319913
91.8854003092862
91.8361265394543
91.7670222404749
91.7036018088308
91.6722227967326
91.6178892098835
91.5452072083893
91.4965529328825
91.4190165699732
91.3653782793847
91.3547303692411
91.3046704437154
91.23924568833
91.182695003778
91.1244866700541
91.0578732824674
91.0117655657698
90.936394081509
90.8412279912017
90.7763845800725
90.7637849548889
90.7417667516089
90.6999934708973
90.7035241224218
90.7594387548765
90.7749324611212
90.7383202998476
90.6973473206662
90.6984111523676
90.720524632169
90.7556409090407
90.7843685974695
90.8236567868416
90.7912314478453
90.8042662811918
90.8432515035058
90.8385275463123
90.8682497472138
90.8890449789744
90.9079842338665
90.9273460176328
90.9747676381919
91.0053691546103
91.0078760584651
90.9965466033571
90.9528811526927
90.9368310077111
90.9432752111171
90.9646114376947
90.9405953308381
90.9364811080199
90.9474411305054
90.9258014728721
90.8891573135009
90.8534963216725
90.8435765345567
90.8149735282242
90.8015281579221
90.7961123478608
90.8042452493023
90.82758521785
90.8526646437641
90.8615895031979
90.8241849450701
90.7648422335066
90.7427715659703
90.7824095062253
90.7826141707288
90.7363608784477
90.70388395883
90.6969160426713
90.6859708039433
90.6700896050084
90.6834770582556
90.689654989153
90.6875912987387
90.7085808616445
90.6965482120699
90.6840430338472
90.6530893277632
90.6321157241548
90.6246160132246
90.6293726799302
90.633111598191
90.6330358137207
90.653308313686
90.6513934376867
90.577619074147
90.5422245118368
90.5559224216898
90.5723384122472
90.5557415957863
90.5600633909069
90.5881088217032
90.6190321191907
90.5965437978603
90.5976283925118
90.6323374293083
90.6500128802029
90.6911401118624
90.6741880617308
90.6657136211609
90.7322355835348
90.7539873128771
90.7701176217445
90.7972612368459
90.8420785925477
90.8690938291678
90.8728125963899
90.8900138120219
90.9435135498981
90.9637848973378
90.9771134445036
91.0317880250302
91.0826473566876
91.1439510343585
91.1806359599927
91.1289786790845
91.131422130881
91.1663451353224
91.1693995104674
91.188187559347
91.2529021375448
91.2710140323131
91.310434462603
91.3852654470608
91.3951693065489
91.3894854018895
91.4332924981272
91.4595255646066
91.4895966199524
91.5279622944547
91.5415633451846
91.5343511923964
91.5405855634233
91.5449061905714
91.6031182326007
91.6357544118193
91.6550107461457
91.6682811715446
91.6833062879653
91.7383114804602
91.7489750836976
91.7528053004321
91.7619088756157
91.7516137168567
91.7814241855946
91.8291595329637
91.8770170408987
91.8908378003199
91.8977039730473
91.9217522617032
91.8888946398595
91.903525448465
91.9900349273098
92.001684393829
92.0094539257473
92.0709840948699
92.1057879683592
92.1085355473403
92.1346624779281
92.139610183477
92.1368180525302
92.157351892091
92.1854966275805
92.2013347899583
92.2367289257267
92.289163229654
92.3119480893079
92.2955054513839
92.2968786011049
92.3218133380819
92.3672101031761
92.3962401760046
92.4051185199583
92.405065521055
92.4453057777726
92.4989405824925
92.5015070593681
92.4923327175049
92.4931780514362
92.5060403739
92.5207089513371
92.5432395374734
92.5914263234508
92.5923555457759
92.5899671016394
92.5989042737437
92.5931181975747
92.6232302102465
92.6614152114372
92.6857982038362
92.7196059489778
92.7244287571667
92.7682574644142
92.8005193854577
92.7991201298918
92.7971730713101
92.8154328947631
92.8207483730642
92.8372038224358
92.8655144149674
92.9093604912178
92.9035814616777
92.8958312096141
92.9351599791217
92.9256277024775
92.9060424391643
92.9659345708983
93.0208246086141
93.0007350815198
92.9955859386097
93.0417684108344
93.1026016743705
93.1091916142481
93.1153549130531
93.1594377864763
93.1802894092065
93.1804225800065
93.1549656674124
93.154425496665
93.1811431728943
93.2120110913667
93.208923783686
93.2374930507013
93.2428739124461
93.2447256552574
93.2482737244116
93.2578741675865
93.2878551213636
93.3302877291146
93.3298243659882
93.3297550897586
93.3475049569127
93.3850359460842
93.3991760810961
93.4043434908824
93.3927784457418
93.4104663053571
93.4417024564562
93.4706028674412
93.4928112556095
93.5607880084598
93.5811148302935
93.5431549137468
93.5093525475075
93.5115020723333
93.5023073538207
93.5193161120955
93.5648914080087
93.614270512466
93.6390478293009
93.65991654835
93.6651362131598
93.6682442400558
93.687380202281
93.6908315666437
93.6990720671296
93.7286345654862
93.7601708288123
93.782313600759
93.7572037095264
93.7552939026357
93.8207869632052
93.8627098069492
93.8637839879283
93.8609586641844
93.8649705456423
93.8962038902374
93.9150280424975
93.9311146142283
93.9157955336825
93.9183754998191
93.9498486538468
93.9858363549846
93.9855895250949
93.9839165189789
93.9948919915506
93.9985058138971
93.9827458352064
94.0228302547702
94.0753264165653
94.0936073485585
94.1249046197154
94.1465765059709
94.1484701443859
94.152139612309
94.1791055706326
94.1888003817087
94.1883167392268
94.1982253029078
94.2375298375844
94.2464244926346
94.2460076284559
94.2699824270081
94.2685933087652
94.2885342634587
94.3063579593526
94.3019074731775
94.2976136218974
94.3148808675567
94.3401547625144
94.3764910260645
94.4008997419392
94.3976408297683
94.3923451116309
94.4236358915829
94.4370584011078
94.4458330144288
94.4613482349192
94.4701898108746
94.4763994878408
94.4849691159704
94.5093238633187
94.5103443381655
94.5032197709482
94.5147776276761
94.5207869319867
94.5615301877947
94.5960516363916
94.6074577436129
94.6358555184054
94.6534365294679
94.6336253520913
94.6483344793768
94.6460274450577
94.6776368810217
94.7287814276431
94.6947081091784
94.6799390099719
94.7131963136277
94.728848084237
94.7537916535533
94.7743948853171
94.796948034001
94.8136781076704
94.8140636877695
94.7934591191527
94.8178894497788
94.8503371856429
94.8289654885656
94.8456590271875
94.9038262186646
94.9388545364804
94.909040226179
94.8965685030465
94.907504833487
94.9075285247021
94.9020446318066
94.9436791891678
94.9822136802547
94.9807776656167
94.9748205797888
94.9735348006213
95.0076416722363
95.0428979084392
95.0654495263977
95.0590578925336
95.0610048072185
95.0749299007698
95.0844021839081
95.1010253641772
95.0900622615308
95.0747978471496
95.1110019935872
95.1398097946471
95.1732754808433
95.1765121122658
95.1661605846909
95.1799465957636
95.174719664654
95.1870713935793
95.2394510075531
95.2611666074402
95.2570757453433
95.2414930120837
95.2382942850961
95.2552272922967
95.2739544551726
95.2880412323993
95.3113491486671
95.3054643258442
95.303766057992
95.3484945347069
95.389999188799
95.380096096824
95.3620683886386
95.3411243485332
95.3594923776509
95.3755092632944
95.3973104815413
95.3981348862112
95.3852876702582
95.3955256775164
95.4042268793738
95.3938542891515
95.4083318026314
95.4245858659007
95.4147433795204
95.4195259948749
95.4323209905925
95.4174072068644
95.4363533764398
95.4454457892977
95.4506254564189
95.4518072125418
95.4362510171746
95.4277665773359
95.4285430076125
95.4106074354134
95.4016882879742
95.4016929908966
95.389861164289
95.3360428942049
95.3153704642703
95.3333542934398
95.3275926284653
95.2951036533262
95.2524788320358
95.2416880726341
95.2550406912226
95.2473437375996
95.2607887475881
95.2667497507581
95.2716093188578
95.2932397076606
95.2967920291747
95.2611848876754
95.2630189612235
95.2827874082081
95.2418719445291
95.2025667681984
95.1973229352658
95.1808159302373
95.1639669115401
95.1380083266539
95.1205663723418
95.0981131801237
95.0599231859512
95.0248478860143
95.0077636343874
94.9828557380657
94.9493004699001
94.9228435926384
94.9017076082848
94.8916490479797
94.8995975981062
94.911507466442
94.8981183359448
94.8728516594891
94.8797454008201
94.8768317795601
94.8574029681867
94.8452545194264
94.8310521159721
94.8096196767517
94.811505171216
94.800525224238
94.7519815868994
94.7276419782986
94.7215775638534
94.6996006801193
94.7049332313597
94.6878895660374
94.6678121895866
94.634516442864
94.6135917339822
94.5892742523466
94.5275458922043
94.5131677157602
94.4953140890571
94.4262967237746
94.4034929632438
94.393663313882
94.3573847404928
94.2785593155792
94.222364190217
94.1748547377139
94.1144729994043
94.0566021101303
94.0178106330536
93.9871451207048
93.9438663142173
93.8935382552394
93.8541583861109
93.8064735990847
93.7647243959995
93.7282313081029
93.6889184289722
93.6499570727815
93.6537780464788
93.6501558689129
93.6123213010899
93.589836377857
93.5981027340444
93.5984334987888
93.5831334507078
93.5740090482911
93.5937127633622
93.5964371500618
93.5909475014461
93.6016806274282
93.6071704522261
93.6071384496084
93.6126617185245
93.6164608216265
93.6355694269089
93.65348757329
93.6598390533764
93.6710160461951
93.6762637476923
93.6698645555721
93.6639415963597
93.6851419255837
93.7102013682454
93.7040383595206
93.7071293542721
93.7179595290897
93.7062996935875
93.7000606478239
93.7161215696319
93.7317684568751
93.7421591215834
93.7658164352783
93.7817855309683
93.7754717585439
93.7659567904296
93.7642319192249
93.7728981643632
93.7596028974335
93.7606578203997
93.7797596559362
93.8018301846303
93.8190666432821
93.8257782050031
93.8403708979361
93.8710577488392
93.8924227935315
93.9240949543478
93.9286187297607
93.9124053653357
93.9458658053552
93.9755590971803
93.9694169491136
94.0000174665774
94.0484932392977
94.0701872825623
94.071520022578
94.0876380744947
94.1275301925372
94.1557212735992
94.1627978871198
94.1591674216289
94.1883740929384
94.2372980419991
94.2678008937064
94.2824679705776
94.3235767429036
94.3573236606372
94.373437505344
94.3786203071626
94.3766692287589
94.411631724417
94.4303885073979
94.4614294017743
94.4795280526432
94.4956839799184
94.5175998453653
94.537624853992
94.559549505999
94.5768373620534
94.5887604665938
94.6118302890225
94.6291956692424
94.6439765981607
94.653179641302
94.6607584018332
94.6676214346285
94.674980760025
94.675816270199
94.6852163613102
94.7066977209361
94.7356761580135
94.7303675224728
94.7281974447684
94.741040554115
94.7784375637034
94.807095586627
94.8123644307015
94.8103554982468
94.8319183565759
94.8481297698962
94.8431640039687
94.8519285517364
94.880315014735
94.9008382318596
94.9229958239714
94.9051883284177
94.9155253371048
94.9300226254252
94.9303938547782
94.9334607106333
94.9344611858259
94.9530681126652
94.996737535721
94.9980879316201
94.9860960382116
95.002426292711
95.0164955400026
95.0145703123293
95.0290839379417
95.0308062174199
95.0110728971729
95.0200659205476
95.0478398940397
95.0803412505776
95.0926406612764
95.0744023068074
95.0830432470002
95.0855912675942
95.1004220266081
95.1307297745795
95.129835679974
95.1056446091477
95.1202747742453
95.1399780524914
95.1253095743982
95.1155626896875
95.1279339038214
95.1409806852557
95.1396595115733
95.1399740578354
95.1550716190925
95.1551877948605
95.167818222245
95.1953610446292
95.1825227493486
95.1414998281849
95.1437001960882
95.1800862249515
95.195991662004
95.180467616022
95.1810145721811
95.1823424225079
95.1978355433386
95.2209461688014
95.2401414443867
95.2267205453603
95.2214986597181
95.2196268081057
95.209354434203
95.2035920279596
95.2350083327837
95.24405421109
95.2212197759031
95.2104972771895
95.2211462447358
95.2312406908438
95.2329115778863
95.2144443349021
95.2109129198681
95.2162688079671
95.2252173643452
95.2400549865314
95.2438918561626
95.2510120718974
95.2517010396861
95.2402029472459
95.2624523560606
95.272360243799
95.2727444404845
95.2477278313754
95.2355374997958
95.2359531730404
95.2600929631642
95.2764589604336
95.2646903427398
95.2652714422397
95.2795336639426
95.283315393108
95.2783960297803
95.2821351652424
95.2991334742745
95.2842859962142
95.2835222763015
95.291205428503
95.2865819291201
95.2875926949185
95.2875221180403
95.303083177247
95.3206163078845
95.2958882230465
95.3035360747372
95.3267710266302
95.3214011532582
95.3293899114088
95.3254411448557
95.323470767469
95.3357553803125
95.3566247833223
95.3747139262994
95.3776543400349
95.3588529846622
95.3542710818515
95.3630975355957
95.3565547813625
95.3455182950067
95.3637093479326
95.3785966370004
95.3679226995693
95.3783622768814
95.4202261019833
95.440494614694
95.4032472539765
95.3791760586951
95.4202167889413
95.433787283284
95.4018474858712
95.4092352105098
95.4350237283382
95.4225485394556
95.4116858699772
95.4469353621746
95.4639860473764
95.4702620610872
95.4782295455519
95.482423548552
95.4882844940491
95.4857385770551
95.4904638512213
95.4838116724414
95.4850103807332
95.4995911692718
95.4943148313447
95.5063810509482
95.5172105494668
95.5219662477911
95.5197187253809
95.5105611100809
95.5104312082455
95.5087210332479
95.4998304089863
95.4984464130978
95.5006654365063
95.5059795032646
95.5090700100661
95.5337530589679
95.5477445377642
95.5469055934596
95.5486681298943
95.5716416177717
95.5766672371524
95.5546517742349
95.5370699966165
95.5514225362811
95.5539025454694
95.5693330211829
95.5954704655417
95.6051200996434
95.6064221127699
95.6091699859902
95.6177017292992
95.6167022997877
95.6293716483906
95.6509826299357
95.6441968634453
95.6263676931366
95.6316612139945
95.6706034283892
95.6980126859954
95.6920480132268
95.6874552169011
95.6931811584588
95.684480613609
95.724542475958
95.7509456892053
95.7156592687635
95.6882002593793
95.6972757141951
95.7202137042505
95.7524896184626
95.7749056669693
95.7577663259788
95.7507979760714
95.7645688814834
95.7668238807739
95.7740446538724
95.7706685414005
95.7812918972415
95.7999936617495
95.7989235171875
95.7819956359608
95.7990484672454
95.8151613515382
95.8071619881587
95.8258948928116
95.8308714975751
95.8182908913361
95.8265713381874
95.8373228302529
95.8506368186676
95.8415953787046
95.8566943182748
95.8727752209986
95.8917125841209
95.896376196952
95.912524272504
95.9034905946204
95.8865688151351
95.8978436645018
95.9314561308865
95.9124819760334
95.9276118160123
95.9660425923209
95.9523283700358
95.9224714737456
95.910273177646
95.9244108715593
95.9653057740453
95.9783683602464
95.9746418280383
95.9712887944064
95.9918052120145
96.001258455027
95.9962883314827
95.9925111090048
96.0008085361865
96.034523217812
96.0366817758241
96.0176266167358
96.0385023561899
96.0327271585148
96.0140223720034
96.0246880085335
96.0223259049471
96.0086094733104
96.0126489774842
95.9981243655559
96.0240856554727
96.0813127011577
96.111561261071
96.1068393210697
96.1066050730238
96.0859509431948
96.0687363268339
96.0648840338722
96.0833095061727
96.1053241465193
96.1058371869245
96.087379315415
96.0957625152615
96.0996262629369
96.1232315514496
96.1202515256653
96.0757429102785
96.0799177750744
96.1114414544384
96.1358246319203
96.1581985368741
96.1278786194541
96.1185971182309
96.0975880360166
96.0845350273873
96.1485525292407
96.1800874695904
96.132726939578
96.0948309109752
96.1108252600291
96.1123774111828
96.1074935461705
96.1294964493209
96.1537293832283
96.1709618267166
96.1893276338672
96.1560268185469
96.1013531748382
96.1073074310901
96.1359140284828
96.163842497602
96.158075315279
96.1855015662831
96.2320852005854
96.2302135170226
96.1893941817121
96.1735051979981
96.1893451358039
96.1863615177699
96.1728522029181
96.1794280362439
96.1588644814714
96.1555811377381
96.1624784216876
96.1283984266752
96.1366733065808
96.1815576499589
96.1885167368519
96.1944212914343
96.205376984679
96.2194082272738
96.2233607078551
96.2382317910062
96.2570805922681
96.2160708467993
96.1959826002064
96.2221606752348
96.225299546004
96.2218453985091
96.2138962149787
96.198060196276
96.1773606639407
96.1617380642799
96.1479522676344
96.1817842163812
96.1998846972181
96.2005663932939
96.211545400506
96.1989718449011
96.2289104051846
96.2712876071818
96.2964151174511
96.2940910975683
96.2510929422278
96.2412756077007
96.2538565385133
96.249954531942
96.2478430419657
96.262940340375
96.2651973398176
96.2394831003713
96.215517249986
96.2371755991736
96.2657911381141
96.2658403659216
96.2261714805732
96.2016480599998
96.1923905223614
96.2016356480631
96.2290510647955
96.2932504005903
96.2897850942742
96.2562494337292
96.2469164917688
96.281085311185
96.299895728281
96.2778341088655
96.2779668025677
96.2852557612731
96.3022952783376
96.3465827378971
96.322138145931
96.2930795131973
96.2990781015994
96.290234675652
96.2903020527283
96.3203203053169
96.2975992524214
96.2737534377704
96.2818219251004
96.2834418509803
96.2911045594616
96.3023596555748
96.2825530781664
96.2950370157244
96.2972399687832
96.2838735592523
96.2773083652275
96.3055866784424
96.3137193819545
96.3135350364149
96.3575176549501
96.3535803316925
96.3042818932871
96.3222859708601
96.3421701960649
96.3454943462637
96.3547137739538
96.3496549041394
96.366052134389
96.3436863857009
96.3198714378351
96.3496019267248
96.3852464741221
96.3981012631807
96.3368362010298
96.3207045819974
96.3864249723113
96.3786343882484
96.3319063903134
96.3413470775772
96.3596739754309
96.3495945926704
96.3473508270762
96.3579660072684
96.3603457995784
96.3797371911758
96.3933792556149
96.3778792443359
96.3721926228761
96.357306445363
96.3356359423156
96.3502844317877
96.4003699992859
96.4077433351533
96.3816529183689
96.4038879056524
96.4337068491751
96.4331097327579
96.4177028305961
96.3779906182998
96.3762016158681
96.4060930171703
96.4049121846926
96.3965466605849
96.3891204053703
96.3691140511548
96.3569003182918
96.3528999777387
96.3600626732022
96.4015124647663
96.4197839460289
96.4080086784635
96.3831659157708
96.3539677359092
96.3647293373046
96.3891169217757
96.4156761073574
96.446043615549
96.4145354309569
96.3789993365593
96.366826850108
96.3736502910034
96.3772314583771
96.3632202587773
96.3605857146092
96.3745785425456
96.3741198553835
96.3809468581496
96.3698417182426
96.3447399098818
96.3390107375714
96.3660115573361
96.3880601832154
96.392038376386
96.3670995032368
96.3776782528653
96.3794654936383
96.3510572418054
96.3279506564359
96.3540014140013
96.3784033104482
96.394941439205
96.3962262864506
96.3720351108219
96.3457468697532
96.331587052249
96.319876047013
96.3593417415078
96.4261458029077
96.4279354713669
96.3549157733872
96.3075139823235
96.3424769690347
96.455310182275
96.4802092397068
96.3377112139018
96.2961279732332
96.4854710084052
96.4492851469479
96.3114424999713
96.4567791942808
96.4697449705009
96.3828676858722
96.442325872295
96.3993568222517
96.3458718562156
96.3264644773089
96.3768574668583
96.378601555482
96.2825537574226
96.3085758439613
96.4275280037391
96.4338339215891
96.4452170209453
96.4809908050996
96.414519053091
96.391764660704
96.383714422753
96.3563104109438
96.3435389112114
96.3996763997256
96.3667833204933
96.3643210243367
96.3937390197139
96.4544737043272
96.4188120214011
96.4971060012109
96.4376396820028
96.389361507798
96.2946777801871
96.3996558891374
96.3992955802855
96.4983675878455
96.3603736676071
96.362752433993
96.291215257506
96.4890820918189
96.3442750809778
96.3361180453237
96.1942331226346
96.4532312585399
96.3133246550711
96.3148072867178
96.2062259287293
96.3946240569404
96.2986599795563
96.3378393709844
96.3742108537824
96.401097501163
96.3559438186231
96.3295358242777
96.4114373783418
96.3671723808587
96.4449282448381
96.347364580588
96.3916915798251
96.4249380304501
96.4595845522106
96.455576212799
96.4285426464076
96.4686493132402
96.4810835165028
96.5058882668392
96.4725160908091
96.4821402710189
96.5192611045609
96.5104785169065
96.5319017033778
96.5782234088645
96.6140941285511
96.5992804326266
96.5963421997983
96.6063788935781
96.5978542573866
96.5918840615215
96.6096316933619
96.6389654843083
96.637527075833
96.6117725531933
96.6471670342941
96.6885667517843
96.6971092933991
96.7189777588414
96.7332431851142
96.73711583205
96.7469327947078
96.7619664548264
96.7650576769667
96.7752892012408
96.8170649599093
96.8470947350499
96.8629307690479
96.8916131080723
96.9135451195109
96.9249424940732
96.9433822984924
96.9496367434694
96.9541857369187
96.9815767822836
96.9896256494208
97.0413564025
97.0722922167108
97.0591802931318
97.0178805509735
96.9836298526798
97.0224793964773
97.0911643184565
97.1276845456531
97.071041162108
97.0587125463847
97.1189018103675
97.0693431173911
97.0531145445425
97.1145020558379
97.1301580663847
97.1322604447052
97.1361990702708
97.2282396377
97.2891094743087
97.2494724859875
97.2195959770478
97.2193543699792
97.215566991924
97.1987709451226
97.2016644583127
97.2056006752813
97.2197005055645
97.2550347236061
97.2160620433016
97.2254439932481
97.2644286363234
97.2589146324572
97.2821900368052
97.3284333719271
97.3300332863547
97.286342603052
97.2776121724629
97.342356914707
97.4128218158537
97.4044835617941
97.3479063121121
97.4099953011268
97.4802914026909
97.4424205905734
97.3610484483139
97.4063379242016
97.4307434590772
97.4025463355043
97.408633029258
97.423332389387
97.4129220517601
97.3737495057181
97.3541641987581
97.3937125590072
97.4919978862661
97.5234006173436
97.4783502242041
97.4697935310927
97.5328838412033
97.517937002204
97.4658198338815
97.4592363908349
97.5120406177298
97.542482089076
97.5409899051868
97.573205873494
97.6184352863876
97.589934949917
97.5551680721194
97.6266303735664
97.6917361052377
97.6351902529564
97.6212701366392
97.6374232993277
97.6174740953704
97.6423099156958
97.6634562293237
97.6664988299879
97.5900690929851
97.6138997859344
97.7089095837768
97.736910547662
97.7550864180206
97.7753441005498
97.7682775546895
97.7612722270492
97.8184252383902
97.8509031489784
97.8612645794056
97.9268735562137
97.9166436132569
97.9415419187701
97.9282573522955
97.8455942803065
97.9890930222519
98.0826046404031
97.9440126902421
97.8939455511788
97.9877618807935
98.1251251754734
98.0817289512538
97.8958534535579
97.8668193336638
98.0397246884465
98.1664194898551
98.1667697401783
98.1873414664916
98.1933793155592
98.1059728065533
98.1445383902779
98.2426055250461
98.2871214236294
98.346563954882
98.3715423971404
98.3861291353213
98.3614420588286
98.4038168137405
98.5242298178704
98.5275566564807
98.4527213901438
98.2818198059509
98.0532211430545
97.9204836605976
97.9891183248355
98.0772080554854
97.9794564061586
97.812331240411
97.6883842194003
97.7377892824047
97.808236171485
97.7350257602008
97.6554104595979
97.6532532360703
97.587895594205
97.4804480437395
97.4401642101427
97.4077471430144
97.4303270834158
97.4663848161883
97.4384038088535
97.37229956614
97.2728598876545
97.2553281919895
97.2973950218518
97.2401584110003
97.1455288761473
97.1776048178254
97.1837292731356
97.1402979749427
97.090283838984
97.0445558210623
96.9635349098927
96.8893400368478
96.9103286856861
96.8964196755792
96.8435141836571
96.8882256967353
96.9232110424753
96.9017754214387
96.9015021270289
96.8601777112881
96.856141111979
96.8954003972813
96.8585183870315
96.8928612470238
96.902413873293
96.8402623716415
96.8503127251648
96.8732325353242
96.8627871535539
96.8615109333479
96.8711573595645
96.8593038891831
96.8720046964032
96.8889113860928
96.8805468139398
96.9149614745267
96.9325440269345
96.8743971851078
96.8277879889081
96.7958588201041
96.8066047048812
96.7956231329523
96.7701185062998
96.783313833953
96.8510672551541
96.9669680032541
96.9584494812191
96.8488002577328
96.8321236787678
96.9185474621113
96.8770542937567
96.7891689289767
96.8065330101497
96.8662511332882
96.9069453029233
96.9112562653672
96.9100967830348
96.961794876132
97.0046247920838
97.076152947604
97.1227355166062
97.0692217992354
97.0002502323318
97.0012589047824
96.9843024517991
96.986659003178
97.0286751854118
97.0294874693185
97.0048695429001
97.0440238614203
97.1008919465151
97.1419216197547
97.1366495692736
97.0973240009077
97.1001538656466
97.1155354690743
97.1130914738529
97.1317204119613
97.1242962343783
97.1212810734111
97.1332516906708
97.1000036068795
97.0402917240891
97.0802020685408
97.1282868958056
97.1540811448855
97.1988387962371
97.2444689948756
97.2846798558843
97.3556152793992
97.3684275511494
97.4075786829345
97.4908339735282
97.4825071067681
97.4024039145397
97.4402228585763
97.4986773664781
97.5713460073956
97.591150805706
97.5567560974849
97.5872387433384
97.6563855240721
97.6753748284266
97.6554544437538
97.6456749684571
97.726202236894
97.7239902396057
97.7094347134498
97.7243805960616
97.6887611169618
97.7349740679982
97.8828659991719
97.93427963841
97.8678154130283
97.7563937705617
97.810409404017
97.8457308357592
97.8242395950121
97.8348244129278
97.8891997216311
97.8091589864013
97.7559651650953
97.7853342432621
97.8137472168752
97.7942182008264
97.7444073479888
97.6778139096607
97.7005712932465
97.768362626141
97.7259900844261
97.7193906861361
97.793819119978
97.7716019143279
97.7201532144826
97.660214646889
97.630047832552
97.6163161029084
97.6040081327971
97.5946974175919
97.6746470234694
97.7034792493996
97.7309754094898
97.6717389724515
97.5602385498342
97.4869191980479
97.4609351139829
97.3965987447132
97.4534382197591
97.5472559181213
97.5118141358472
97.4346180238145
97.412940905006
97.4764423174069
97.5731801012382
97.5264059668529
97.5133120672829
97.517540004276
97.5228204079867
97.359092226025
97.3578927712789
97.454869781714
97.5654055985644
97.6734695117675
97.782458119644
97.7453730853061
97.6323714623666
97.6012802367773
97.8132537511155
97.9130332475164
97.7680474456459
97.7319225438303
97.8760282939584
97.9118433021919
97.8684769067087
97.6880915210132
97.6999823169501
97.7923396418842
97.8850907430412
97.8233536118571
97.7036567224085
97.5822711881477
97.4589561908154
97.4026945158754
97.4965818941817
97.5219151257788
97.5220645325439
97.5138471981434
97.4478729276314
97.402199211713
97.5140464924545
97.5105825032082
97.4309256611452
97.3398130668119
97.3571470040414
97.340925416915
97.2999726369291
97.2765598365919
97.2435237297444
97.2019657124774
97.2827382788776
97.3329583672577
97.2939098777704
97.1779843420965
97.1584779351392
97.2008185138745
97.249318480846
97.2151000017409
96.973020494476
96.9143075207664
96.9602166163442
97.0352777317079
97.1569141777938
97.1867866750525
97.1259838979473
97.1049695427397
97.1650340399993
97.1274968487178
97.0533753175126
97.0154767582559
97.0070109690535
97.0358477923428
97.0404877395323
97.1052827208221
97.1747522966791
97.111744450181
97.0218139733264
97.0570187662807
97.0652333897952
96.8558359369175
96.7884521265605
96.8566966851865
96.9839445920841
97.2098314268351
96.9239489093891
96.6920654103494
96.8838194500169
96.9869492267595
96.9797120828502
96.9712501635426
96.9940903118905
97.021788773529
97.0052243067509
96.8060278476281
96.8395323320213
96.8794161454467
96.8966179632698
96.9048054072173
96.9852461585287
96.9743297690551
96.9455670044065
96.9369603417625
96.9266418395774
96.9108734783298
96.8992987692616
96.917072898989
96.9530230116369
96.9792975165287
96.9246230004526
96.773154556109
96.7983757397914
96.8178661929489
96.8304081214653
96.9163125510168
96.8837580616568
96.5603749973524
96.7023476548939
96.8242677277843
96.8405852533281
96.8687924094572
96.9048196462954
96.8675527154456
96.8206266291559
96.8054521890313
96.8506487983496
96.8329811083946
96.8046885790015
96.8190568350393
96.8604968354353
96.8638390167788
96.8728290489051
96.8584917596795
96.8573686029972
96.8624826470605
96.8488174014987
96.9274567135819
96.7503152547069
96.4711388677485
96.4895168744618
96.5184953831917
96.6257658068899
96.6949191045245
96.7858453427677
96.8091259043613
96.8509337063124
96.7885822188123
96.7788770399975
96.7489976642857
96.7522535703951
96.7471499910431
96.8059914513487
96.7787059914991
96.8106067177571
96.7915849917249
96.8327418959979
96.8174174629479
96.8344244756577
96.7996040863055
96.8463656160123
96.7479187334295
96.6351142951548
96.6540239798425
96.918616571199
96.62880536747
96.1552585507333
96.3999263357199
96.5418173276534
96.6999799266789
96.7390660778391
96.7727478521213
96.7817270713891
96.6838237239705
96.6739024069521
96.6781889630841
96.7028763742537
96.7341124289425
96.7108019197621
96.8254121513921
96.7767798887355
96.3101503430467
96.3034480819749
96.5372319618779
96.7617601847418
96.7834122311889
96.3390513688699
96.4638136500145
96.6383560423122
96.6018184375349
96.6763247934061
96.7313574509523
96.7498246332193
96.7103023378344
96.6642758012846
96.6463252028247
96.6941187564377
96.6706683013804
96.7257040746419
96.6956534334597
96.6806394837031
96.5799309031157
96.3924832079508
96.5402440915795
96.6066427327353
96.5453587027544
96.6297871818983
96.6485727728803
96.6616431323151
96.7122614658323
96.6361340255189
96.3899599968468
96.4943177807178
96.4214346895752
96.310296163252
96.5409746125793
96.6243283733491
96.5347172522171
96.4647550314077
96.6956381070384
96.8087802537145
96.2383443246283
96.1662135843242
96.097142555194
96.3995880660113
96.5629608361199
96.622851874112
96.6422107380442
96.7242945414763
96.4311578931097
96.4206850322653
96.5590690658757
96.6387813593926
96.625485325841
96.3570814936143
96.4267220377978
96.5141062208935
96.588408489123
96.6504544785026
96.4474117896448
96.4483877826826
96.8021301284706
96.5080431035309
96.0227615107582
95.9117622097908
96.243617028722
96.7467234387878
96.3510325538813
96.1921522768176
96.5025986672598
96.6307589349188
96.6242522763068
96.6787195089437
96.7859050476579
96.3187853281744
96.229791933528
96.4940947018128
96.536897644369
96.7237612957272
96.5325028450015
96.2511489969998
96.43910882439
96.5824908903757
96.6051127345328
96.8004051454189
96.4453842901051
96.035687365606
96.3315261885051
96.1766102462426
96.2178887547008
96.2493965920505
96.3537862874422
96.4598513176635
96.5239333822424
96.2191349319224
96.2846712014342
96.6874997869775
96.6793251561085
96.0623294784519
96.2948440811583
96.439972244189
96.5782079459956
96.8720548512793
96.5663942759183
95.6902153064164
95.6291676815328
96.0822667465185
96.5153290968505
96.2990224848161
96.2588036233569
96.5120004179922
96.585664939681
96.6217113520704
96.6365324763674
96.6727922140837
96.5178206165358
96.445765080998
96.5297100699183
96.5500412378179
96.7220653182306
96.6544917900588
96.1071249475857
95.5905293766727
96.062491542679
95.9861954127388
95.7948330533098
96.1478880858796
96.3951831362591
96.5512625704687
96.4483051803899
96.39087253211
96.4914516784459
96.6218398354371
96.3946316165135
96.1528840384062
96.288837399838
95.9758921662377
96.1707408642529
96.5359402713415
96.797392124398
95.504420036371
95.0652314667657
95.8641221942492
96.2912645684234
96.5133353147789
95.4366838045261
95.5493854564085
96.141389419525
96.2809240337263
96.3862838586813
96.4059021387085
96.1796123635011
96.1036881589061
96.010366441808
96.0394719798542
96.33122513125
96.3492037194136
95.5224604322224
94.9711449421264
95.1376561071943
95.8142087934794
95.9824568416691
95.7518431002939
95.8958187862477
96.0418139111545
96.1493297244718
96.3301399383161
95.4977981716824
95.4253107260593
95.8008324478345
95.9691438268485
95.6466015379295
95.8261618809863
95.6375805390665
94.9994442775565
95.3811554567031
95.6585841033376
95.8222886759101
95.807651029305
95.9678848316231
95.6145082938972
95.245487484825
95.4336205156794
95.539292421769
95.6221116949475
95.6406555712147
95.6071445718821
95.5421397612726
95.6400955850238
95.4927031763962
95.1362999708225
94.1133650929058
93.8849752115975
94.9226922221447
95.3257992329709
95.5896741703733
95.2337863748976
94.9935960453628
94.7880339609419
94.4570052499738
95.0021995735605
95.2855827507433
95.3214460103652
95.2917643489063
95.3271027860666
95.2848376425571
95.3693386888686
95.2227343102751
95.1043315851757
95.1632240889781
94.142534972861
94.4799739130985
95.0689891189807
95.2855797369735
95.3519823137099
95.3915494537331
95.3968141746125
95.4286689237364
95.0262616418192
95.0843495106895
95.2713107388573
95.4740923843872
95.3441860927584
94.818689890768
95.0390689010453
95.2935452568836
95.4361662835144
95.4843328677377
95.6055081036372
95.6700484733458
94.8195517835773
94.9272159619271
95.4030004520279
95.5526409028137
95.6376341005714
95.6516286126623
95.6953116188013
95.6526163337218
95.5222484473753
95.61506203796
95.5843080578641
95.6039460533954
95.722765861571
95.7882036894827
95.75887261182
95.7053441618234
95.7515941287425
95.7554943187384
95.8147281859977
95.8283757445579
95.8700521259676
95.873504315391
95.850488960229
95.8330009599882
95.7838630910087
95.8224867236558
95.8769288270286
95.8802617654314
95.8974739201759
95.8756805268125
95.8995407135175
95.9155798815986
95.9279294339108
95.918265236067
95.9317491543023
95.9127936408782
95.9090872941169
95.902676204304
95.9356125505218
95.9128336603502
95.929255806144
95.8979131488396
96.0359486828275
95.6516232142796
94.9576061451822
95.4672152346922
95.7570446483484
95.8945079082066
95.9204850625362
96.0937260128204
95.7776762686589
95.1466641653247
95.4617832519225
95.7539582932777
95.91514771955
95.8484380119533
95.5796742584208
95.736385704117
95.8251644277069
96.0124471710615
96.0129249824904
95.121096207157
94.8042094601336
94.1368351696769
94.7244025446109
95.6516693747407
96.0194642799551
95.3504057430103
95.5206558539705
95.8787318941971
95.9874997425301
95.8502931485008
95.4683255133797
95.7272079766438
95.8967026644633
96.078060972306
96.0250669838433
95.4804125633903
95.5460474370463
95.753961041617
95.3400382220918
95.4431200674234
95.5039161881337
94.7143712365526
94.7875687851922
95.6054876499345
96.0380470775676
96.1240423260117
96.266801961224
95.6970544243083
95.4222020266379
95.7308945425659
95.8582692673199
96.1320233639378
96.1252507421854
95.996133560058
95.8896491881167
96.0409247792106
95.5859524693383
95.6827136097104
96.121319491653
95.8356515723201
95.618204669998
95.1439330547182
95.3575535182443
95.9923627522558
96.1794792760571
95.4049803536464
95.47554606458
95.7316732669939
95.9785743161018
96.2699901605359
95.926580403282
95.9287930885388
96.1609415966554
95.8550070108985
95.7594255669657
95.5508882467331
95.1021068632323
94.6882651937825
95.1658781769432
95.9128475713608
96.1985324521812
96.1993602183744
96.1556076689556
96.2512744463493
96.1570951738926
95.6632254322159
96.0984827081151
95.846566604994
95.5246271166633
95.9326268929444
96.1110511070869
96.1615405791172
96.2562789886808
96.0029038818376
95.5200433408838
95.4519987775804
95.7866251755738
95.5329317158863
95.615672309699
95.8353171875845
95.9004737659949
95.8555881610694
95.8191247155001
95.6421507837193
95.5240439093043
95.6130592518742
95.6411054173899
95.6528261440905
95.6611872683556
95.1640917458766
95.3958310031991
95.5042831420481
95.1338472200308
94.8688301412537
94.679459731659
95.2393601390609
95.4409999942205
95.4714917444207
95.4563361032037
95.4479220638351
95.4575174249728
94.8838621653985
94.819612933551
95.0486111090012
95.0430523739726
95.0306314357063
94.9922496297342
94.7504767692951
94.3816845654874
94.2731768503338
93.6056643774175
93.8393793233774
94.1121591527168
94.4360236810822
94.548805237601
94.379220329296
94.4203246451238
94.4875579404154
94.5068139327094
94.1983384358068
94.0999735002536
94.3312013130839
94.3674010542326
94.4307225988596
94.4310475725778
94.4130834614346
94.3942365996309
94.371907956762
94.3514536839223
94.3256407292745
94.4163157547332
93.8686550981474
93.3472622611713
93.7557048134695
93.827717832671
93.8044772140213
93.6742067662779
93.628846989458
93.4106764820374
93.1685249566657
93.2431164874279
93.2871017184224
93.3311970240849
93.355474119274
93.3067567570254
93.0444656215888
93.1202702687247
93.4326519209527
93.5232159603865
93.6370524236039
92.9759809776638
93.1460155169582
93.5179109409538
93.783885910588
94.0319970034496
94.2344359757045
94.3574988442299
94.3854126785857
94.3830705732668
94.4164350414004
94.4781239321382
94.5366953706854
94.6357033826176
94.657540615542
94.6846918636148
94.4956127984304
94.433349709812
94.6542063411525
94.7282700368883
94.7927377163522
94.883621863966
94.7749719217558
94.4058354624005
94.585667100616
94.6985595372841
94.6928303327343
94.6329892029863
94.5311585440614
94.69557572604
94.9007142755279
94.9237367563114
94.9600646835223
94.9274921862864
94.9384083493171
94.5925864827137
94.4887761295621
94.652942924175
94.7070239997017
94.6720712001371
94.6158255652797
94.5238689842079
94.4349415153236
94.306665501385
94.1681080698867
94.0057402022835
93.8471661826015
93.7739029486588
93.5766413430561
93.3529095634341
93.0848093046933
92.9420542028897
92.9625950268961
92.8885346989111
92.8300539464212
92.6659301999318
92.6213232000786
92.6931112593422
92.7554021159978
92.7563613785286
92.7669872279621
92.4399914242623
92.2582320919601
92.4170913203127
92.3380876744778
92.5221923877283
92.6093946753343
92.6319415949239
92.6468256880572
92.6817173822878
92.6604701965701
92.7027462226303
92.7959096027859
92.885002705669
92.9749579157023
93.0531977091127
93.1066490096971
93.1532843343187
93.1903780255812
93.1852083531152
93.1571535274344
93.0800895481918
92.9799594114653
92.8628763987237
92.7311894249691
92.5286949456363
92.1547926761278
91.9778527694452
91.9209976547554
91.9277487257243
91.7866883293425
91.7770133223055
91.7936510508415
91.7573496223203
91.7577243146423
91.7962862033882
91.8725925171491
91.9486482519723
92.0470945768184
92.1314483422622
92.193559770482
92.2192862626818
92.2195097876016
92.1803909404228
92.1158272097313
92.0387092167196
91.9484908251812
91.7849840240386
91.6026104771309
91.3753854583255
91.2027733289239
91.0006695051869
90.8663900035454
90.7410857352795
90.6370109189335
90.5931546433454
90.6021783280998
90.7131810212402
90.8364414521454
90.9599860551872
91.0905363247047
91.2443954636295
91.4320355720802
91.6118977938452
91.7948604186129
91.9616858197292
92.1076383859691
92.2598698726186
92.4243658186159
92.5792710282995
92.723691443999
92.8527961369329
92.969950571424
93.0550716383936
93.1416184958508
93.2119506724564
93.2597356936213
93.2762156899177
93.3003424278526
93.3218680982544
93.3422781642691
93.3696917097109
93.3834656040564
93.392148345761
93.4063246000908
93.4043654153416
93.3724864077252
93.3171037799307
93.2537855145506
93.1861842519677
93.1369468663768
93.1293088688559
93.1772050871598
93.2242208164701
93.2604561629322
93.2864720185296
93.3254109513728
93.3605653352597
93.4018859645556
93.4463069442329
93.5077250942596
93.5842215476095
93.6439947689198
93.7101729380339
93.7627253765035
93.8073512242296
93.8451384808202
93.890909760533
93.9309776534336
93.9763169317885
94.0163839109305
94.028914483067
94.0393889312177
94.0920435294277
94.1450193398081
94.1884203954344
94.2302332475613
94.267440766947
94.2918919796594
94.3007870994107
94.3044739963613
94.3039539116058
94.2971325343311
94.2861521475549
94.276547745585
94.2592643860763
94.2468643080714
94.2583636685194
94.2904727790764
94.3194905713033
94.3565040479225
94.3994464694562
94.4424012996955
94.472134262867
94.5012731130509
94.5182896828865
94.5210535166473
94.5162038132197
94.5021031383009
94.4905626754443
94.5107948122603
94.5594758360058
94.6099309448635
94.6652173436029
94.7287424236442
94.8023393378298
94.8729516131268
94.930968424832
94.9907958163822
95.039723831087
95.0991159994111
95.1758350062452
95.2504637928565
95.3256933629133
95.4056211863944
95.4775820459572
95.5497961035177
95.615451133928
95.6777207894273
95.736777125663
95.7744090916329
95.7888937971325
95.7948735086766
95.7731937535441
95.709020339922
95.6297318892053
95.5199232772776
95.3580417458006
95.176154653494
95.0240019778871
94.9164384481493
94.833192934729
94.783978764238
94.7653315431485
94.7619856958136
94.7690500367805
94.7932973241434
94.8349148113778
94.8922529202327
94.9619769245877
95.0518582103251
95.1546567113573
95.2574698758606
95.3560404513393
95.4627350042309
95.5585021474103
95.6442387646711
95.7325433455904
95.8112052672407
95.8714936070858
95.9155861267464
95.9318085147432
95.9499349159738
95.9583148300536
95.9520197649369
95.9291416736773
95.8914352214767
95.8376237705871
95.7724817517764
95.689704817828
95.592240862761
95.4879754083138
95.3608160881467
95.2121319868081
95.0370151583361
94.8299335761885
94.5933198414338
94.3100256107255
93.9700183108039
93.5662345705052
93.1157903023145
92.6218660099375
92.0961850813554
91.5564041946054
91.0314051741695
90.5395544096266
90.1125803801522
89.7878062406535
89.5686317323556
89.4470082299535
89.4241505674018
89.4827374877433
89.6004545343063
89.7514060662316
89.9151383416714
90.0753203474545
90.2350410060108
90.4007686385724
90.5862364900347
90.7819552151659
90.9705930006992
91.1310664918997
91.2731616559525
91.4238199937179
91.5984218031381
91.7819800904171
91.9754485473844
92.1949952723346
92.4233470073248
92.6372817066952
92.840200418128
93.0071230095739
93.1301891614029
93.2145177172782
93.2385560682572
93.2030260743346
93.1280024460972
93.0063526056914
92.8582889047525
92.7022552459118
92.5402076883958
92.3786831156671
92.1987920556829
91.9764060326881
91.713043118601
91.4073429774542
91.0684054091904
90.7167606728634
90.3823122424678
90.0920782559659
89.8488084404727
89.6325306124089
89.4130075922873
89.1749966617976
88.9009548485232
88.5666217471002
88.1555551434455
87.6650500134496
87.1226598727773
86.5694047182938
86.0469518803218
85.6056025391663
85.3128579246206
85.1558013693912
85.0982694932998
85.1114150109457
85.1475614339055
85.1679070913684
85.1657934094326
85.1449190785955
85.1137823245852
85.0965842740359
85.1238696147823
85.2008396311608
85.320298529581
85.4729842640383
85.6522227142569
85.8418125782399
86.0431677448312
86.2457200754877
86.439226182444
86.6293490640636
86.8118937197903
86.9589568343112
87.0757990902961
87.1707452493058
87.2337793470791
87.2849265271902
87.343022908781
87.3825110113577
87.4091816886097
87.4316275974765
87.4118729053029
87.3423533212579
87.2300709108932
87.0504597799967
86.8264101007824
86.5491582428155
86.2250366750768
85.8977500851111
85.6028913230739
85.3605674855963
85.1618707767409
84.982765557755
84.8060978128458
84.6067770145431
84.3828679553338
84.1352671636314
83.8374455106726
83.4825931861979
83.071703382339
82.5901559239404
82.0401648726097
81.4268790071661
80.745162647543
80.0187445455509
79.2965686195253
78.6368536156478
78.0757086408227
77.6244240547051
77.2889347984699
77.0438968941535
76.8526179831558
76.7027317112791
76.6030484449647
76.5823877244714
76.647333204425
76.7853581675138
76.9882167465686
77.2383409733616
77.5209961082104
77.8326270976949
78.1578324448432
78.4719585663172
78.7547176762716
78.9875508295418
79.1299764473777
79.1492842139651
79.0543031079108
78.841819670085
78.5237138967765
78.1208471353844
77.65607945436
77.1566579771421
76.657456324516
76.2159575441028
75.8644552114722
75.6019876685412
75.4252305820501
75.3192602511091
75.270901684406
75.272394888879
75.3226275853071
75.3986452354381
75.4791767531808
75.5721782528125
75.6880518678267
75.812460131304
75.9429270179008
76.0682285266118
76.1740155058857
76.2720631423186
76.3768719726843
76.4698519675041
76.5412403715002
76.5823400689674
76.6018192790162
76.6334167848841
76.6917788061362
76.7691926392292
76.8509789806853
76.9289063628547
76.984806529752
77.0119755988423
77.0311804594029
77.0370010523101
77.0227087169378
76.991454365948
76.9389420542886
76.8495455581335
76.7164782933948
76.5826575861352
76.4760520087317
76.393330272876
76.3536532291026
76.3642626196479
76.412625807727
76.4866367107722
76.5868472206422
76.7038222428937
76.8232056572797
76.9632313508051
77.0873024764091
77.1729728151881
77.2249242571384
77.2219910590929
77.1575645540397
77.0478787504922
76.9256274944394
76.8374610570711
76.822788812403
76.9121285919443
77.0904591719711
77.3519713024266
77.6711768589788
78.003924464309
78.3538478778112
78.7080748008795
79.0573018630058
79.3788264893854
79.6773665548042
79.966035118266
80.2275942144994
80.4629271248493
80.6871096417631
80.8860386033907
81.0719219136015
81.2589331504557
81.4510284293901
81.6453070975581
81.8440283542056
82.0521065243558
82.2500738140197
82.4429588465504
82.6381229385662
82.8356809537171
83.0326950029243
83.2258106143996
83.4237944636342
83.6249741919595
83.8198502019918
84.0022267819415
84.1830910208348
84.358906464827
84.5123673683388
84.6734484315222
84.8438873178104
85.0106207354497
85.1720141539205
85.3241279162052
85.4612410793687
85.5952908149687
85.7415439189103
85.8716136296292
85.9861472647379
86.1143424859296
86.2444865308943
86.3490540356179
86.4356459105609
86.5286360924731
86.6316628771683
86.7372226776544
86.8276501330716
86.9028242323803
86.977451770604
87.0616849423251
87.1432693172415
87.2165330812738
87.2958083067655
87.3768258738307
87.4557531549163
87.5332776986775
87.6325580449792
87.7180400322263
87.7886044587751
87.8729907743354
87.9540590543456
88.0308528075296
88.1018318238509
88.158563160531
88.2206111628505
88.2739717722324
88.3098881681391
88.3291310780755
88.3383431620703
88.3599142223815
88.3677700899915
88.3715681535884
88.3691096597038
88.3555657449913
88.3375027215057
88.3128870066177
88.2754017100583
88.2418648025114
88.2110647808258
88.1751609064261
88.1288070029108
88.0802645973021
88.0089465506483
87.939717556609
87.8894914850412
87.8562053029562
87.8433057251893
87.8477452606438
87.8462802438686
87.8676375361588
87.9120270122517
87.9781182194706
88.0582015433033
88.1456781393403
88.2435652663587
88.3352506590909
88.4386297703426
88.5374415203174
88.630403433852
88.7370360405666
88.8716767622431
88.9745961773541
89.0324544648396
89.1033615990088
89.2071240193767
89.3242424909719
89.418715766459
89.4957306223013
89.559573386271
89.6053842355732
89.6649634362002
89.7482287264506
89.8370168865343
89.8981969587845
89.9546190816973
90.0122500934436
90.0610977182112
90.1228168561574
90.173045093253
90.2000480117558
90.2452940458184
90.3044466909468
90.3430706457376
90.3690285072765
90.3977726598708
90.4337198951496
90.4716932691729
90.4981262837928
90.5252510565236
90.5677276117959
90.6109954884602
90.6179418793076
90.6352889142186
90.6858210281266
90.7060563842905
90.7190835907003
90.7428409107346
90.7823401631544
90.8254608852277
90.8362380189341
90.8508001937966
90.8821705499807
90.8808885058191
90.8788583124112
90.9289819923766
90.9470416851714
90.9262233997462
90.9529848501057
90.9659242056898
90.9524688739783
90.9735726668578
90.980544585761
91.0004757619793
91.0615611562299
91.0749026148255
91.0709392663449
91.0896330644046
91.0809366453447
91.0635115317309
91.0481911928343
91.0407231291919
91.0462513391323
91.0475667506249
91.092622255775
91.1093026270208
91.0764331646213
91.0868717719494
91.1136064478003
91.104247697732
91.1112973733108
91.1052811259014
91.1075194104235
91.1343942515487
91.1450297779312
91.1538985131139
91.1329390865258
91.0959002464449
91.1106914871559
91.129793325574
91.1340912363191
91.1370522372828
91.1472790265572
91.1602614424401
91.1707956277075
91.1791153316181
91.1837136244278
91.1776348352818
91.1695172735979
91.1877973089317
91.1684326387158
91.1231974883251
91.156650806889
91.180908807261
91.153285629101
91.1307012648134
91.1291102519632
91.1148786928924
91.0580791696396
91.0251111347966
91.0719701854939
91.1398274147621
91.1074659240506
91.0606426928619
91.118003209137
91.1574995307762
91.115815204069
91.08688834779
91.0671813020944
91.042016954819
91.0220860762983
91.0062575242807
90.9824654159141
90.9950732410769
90.9981725306381
90.9347037512428
90.9366856653234
90.9429520458114
90.9177150478949
90.9076514740414
90.8930058133427
90.9128060969149
90.9519326503713
90.9211896484193
90.8692756701345
90.8744155595236
90.86442919069
90.8404554316457
90.840524805374
90.8178569147733
90.8251132499478
90.788075626724
90.7374214485508
90.7542760981699
90.7346534658439
90.6484972454358
90.5623125048144
90.465712665264
90.4533061463774
90.5057510207821
90.5580128643093
90.5603489838639
90.4865853169562
90.3968208833797
90.4127780495528
90.366858806147
90.2585442180047
90.223916818374
90.2525795351547
90.2712883573762
90.2276894325095
90.1962164936853
90.1697568317783
90.1480622991326
90.1215126108457
90.1043677352985
90.0875937857317
89.9747093588547
89.8879064553806
89.8330556622679
89.8151954300697
89.7941385198798
89.7556154221606
89.6659992267525
89.6334257007784
89.602615032498
89.5095382365028
89.4790299143958
89.3406280285855
89.1501564966717
89.0559431016052
88.9614955809655
88.7734960987111
88.6790364339131
88.623770796011
88.4729422983352
88.2462936837113
88.0773869810294
87.9557955665781
87.741590291015
87.5161615806245
87.3030111721331
87.0665701376561
86.8092038987129
86.6538980256555
86.5793612862528
86.4530801157706
86.2550831098889
86.1051274880359
86.0231425919721
85.984883723327
85.9228784839019
85.8375261672487
85.7080192305286
85.6488687516828
85.6662695870102
85.5961848544101
85.4900100996682
85.4642905605633
85.5246354771202
85.5999240299611
85.4743708511535
85.3878094741454
85.3874716574873
85.3545001350983
85.41184344039
85.5127837961021
85.6306541176015
85.6375428377866
85.5010485986318
85.4862690809137
85.5498168356116
85.3576004120715
85.3754640737714
85.5790069072762
85.4920192297506
85.4186382755969
85.439493306285
85.3641937565396
85.1757589553198
84.9037525104717
84.7051739683741
84.4444580243462
84.2689644880811
84.1703832055388
83.9347432965384
83.6209470432158
83.2095857642164
82.7913370407501
82.7856973237412
82.8177551602548
82.4357461187265
81.7734584881149
81.6477868336796
81.6634656771522
81.5838897567435
81.3904621354851
81.265062937209
81.0744491314241
81.0035470050036
81.0889283677362
81.0684787859599
81.0739375653837
81.3486773808426
81.6956868015993
81.876116440827
81.9882347899138
82.0138703062341
82.0354307461478
82.0267152232124
82.089109484852
82.22000940438
82.3606807972768
