3596
4000.36533379555
650.420452594757
1
128
2
98.6319789457386
98.6040049120992
98.6376874081724
98.648651210463
98.6621498803046
98.6659312691687
98.6137192229261
98.6092718108287
98.6230164091042
98.615498693942
98.6145405091422
98.6570837910328
98.6535293192037
98.6137150256733
98.6288311187695
98.6404749180863
98.6203049262438
98.6328271292726
98.6777754343857
98.6684661852782
98.6431300119221
98.6668878325383
98.6401858451101
98.6056523997654
98.5658772889419
98.5966335860109
98.6469542117945
98.6715772433076
98.6236203067379
98.6366797505768
98.6506359742995
98.6270108821906
98.6446247149083
98.6717902489146
98.6431034111812
98.6221806639744
98.6457386473331
98.6466875101903
98.611393934587
98.6191533966681
98.6309458976136
98.617946830875
98.5769478681497
98.5682998253408
98.6017012516769
98.6264157633354
98.6304211710339
98.636311603962
98.6622246986287
98.7082096176923
98.6763443837379
98.6399427699751
98.6235166537657
98.5863328001381
98.5247779655161
98.5698251512411
98.6918196566824
98.7555217249756
98.6315319406685
98.4898360178185
98.4675821389304
98.5825543248602
98.6224473723245
98.6308338561699
98.6607480369064
98.6656376831404
98.6608712067309
98.6840702072006
98.6878255715534
98.6216787221339
98.528146676197
98.513018490421
98.5623724452257
98.5491140243376
98.5570032345157
98.6419571612959
98.726499387114
98.6885890837154
98.5308496097237
98.4786538192471
98.5870693578983
98.7306921613847
98.7141622210028
98.6198146599849
98.6802055647796
98.7469954489026
98.5474519093596
98.4153607070302
98.5335045903015
98.6341988500216
98.6441022610986
98.6593887488037
98.6734704325645
98.6659332643383
98.6780195012334
98.6828858573567
98.6768593279876
98.7246188995562
98.8055944642199
98.6864928095559
98.6317628676006
98.5971201538275
98.4889211358807
98.4722465429587
98.5090899108989
98.4973850428552
98.4194286168516
98.4883040118213
98.5568211403626
98.6230087120465
98.6258053314471
98.6928821723212
98.7894903110506
98.7059750780521
98.5066660367566
98.4180361839923
98.5219082171414
98.7047118406888
98.8613185690459
98.759140787803
98.5683968647606
98.4597936342742
98.4816444892992
98.6523515187675
98.8113878173575
98.6215736159708
98.3509273365715
98.3530384285175
98.5280021998294
98.6786011772889
98.833960512568
98.810528654929
98.6094171967675
98.4900954575735
98.622260519668
98.8510397434015
98.7378901775432
98.4074059714073
98.2991770161147
98.4977628870389
98.741861521036
98.7005259176853
98.4843799125297
98.4841438584985
98.6280557070798
98.5890948422656
98.5221611140696
98.5227321427956
98.6383163412522
98.6735120929539
98.575135282652
98.7154501924924
98.9491853616807
98.9080049320985
98.6441805308515
98.3131355993946
98.2319427174781
98.2626883488422
98.4370420619464
98.5718443236966
98.5781670812571
98.619047511282
98.6911974787923
98.8020159456441
98.7147679364211
98.6502434387792
98.6908872487745
98.6665306163772
98.5925981378902
98.6804703631771
98.7465127890106
98.6087182977655
98.582068405447
98.5873274224126
98.5267517803842
98.5329319158809
98.7013399630477
98.7339483805368
98.5780444304825
98.5062496981409
98.6476286812957
98.7761334369729
98.7291396483006
98.6266459632771
98.6395106879586
98.6786858993703
98.7564502461866
98.9475387452243
98.9937643909621
98.6390414533679
98.3107528751689
98.3453149603192
98.6146440874681
98.863808065874
98.7415040360807
98.4898944970872
98.4494724025978
98.5688196444561
98.6456144637914
98.7101503887572
98.7463742027351
98.7770720726731
98.889494045027
98.9406409935599
98.7801780709988
98.5731473494039
98.6003798115665
98.8026234351374
99.0199178906754
99.0512946348686
98.6430981880465
98.3606470974839
98.3794190842781
98.5913843482057
98.7238065222214
98.7027104829749
98.5820846697481
98.5552217701332
98.6351408879813
98.674351504708
98.7163116863222
98.7663515876361
98.7116069678203
98.7179776879263
98.7876724042274
98.7905710555824
98.7984674738036
98.832150337404
98.7948074012701
98.7494112483694
98.7003063164482
98.7473797023198
98.8527801235098
98.8172032532223
98.7032137110483
98.6398989695404
98.6815140542158
98.7204505849536
98.7434403275694
98.8304456194277
98.8423113500246
98.8091962249096
98.9004956620698
98.9241771308119
98.7126498482181
98.5608075722233
98.7057310634903
98.9135096946066
98.8038900393617
98.659565660927
98.6255552617695
98.6879641643792
98.7017731792668
98.8486046575096
98.8789601953245
98.6680035704925
98.648814338966
98.7909831321987
98.7127329447773
98.6337715924741
98.7052763545825
98.9456534838268
98.9134727714029
98.663582377691
98.7942359562316
98.8897357327405
98.5933376404452
98.3857491967755
98.4678110286961
98.8778441039182
99.1245430862628
98.6979089422677
98.2010646001844
98.3828960181289
98.5282510396345
98.5581879836807
98.6699124286608
98.7543277200474
98.7850122946167
98.8770069005175
99.0198638732209
98.6641170668725
98.4196152902522
98.6609219586716
98.6019851235448
98.5015732490008
98.5126251924061
98.6657086815083
98.8333122420136
98.8801033030625
98.7682738880829
98.7053466231935
98.6028116048335
98.7898486606055
98.8394697336853
98.6852272258216
98.6396822737241
98.7109710119311
98.7068901305034
98.6832612524905
98.6807697737508
98.8232397735383
98.8771590663262
98.7919339572525
98.9011255989026
99.021490882807
98.8340966591916
98.7401662177077
98.7614804324277
98.6962789090884
98.6528299032317
98.7594553974243
98.8530209902866
98.8291938121046
98.8102645721957
98.9602821109033
99.0467175391084
98.8724097931525
98.7405644836452
98.7486124593856
98.7975273832426
98.8602227056297
98.8851293960608
98.8433119690109
98.8257849814106
98.8515614517853
98.9141884212325
98.996895220332
98.8787760216803
98.8678628832283
98.9744611971252
98.7865487424001
98.5433755150555
98.5236992470554
98.6903691984093
98.7731535851713
98.7834976400121
98.8221846334313
98.8197991917323
98.9134841128747
98.9464876027513
98.8355973301216
98.8425008183641
99.0303255342607
99.2103953270249
99.0059106178059
98.4927978604761
98.3533655286206
98.6334021913127
99.0292227060193
98.9619505657695
98.8104585495439
98.5842315274179
98.4567724562083
98.5507709778805
98.6811043172775
98.7442160960878
98.7739948108692
98.8229833390651
98.8486230498084
98.8516033785947
98.8495755124216
98.8052714060925
98.7613887205441
98.931103541485
99.0191810836874
98.7583165419656
98.5978496096142
98.6339040302793
98.7693034345133
98.9778612785568
99.0213930919983
98.904301467465
98.6564709665985
98.644198945086
98.6418855524593
98.4477690897483
98.3299118086233
98.4164100213986
98.6674829006952
98.7156242950988
98.6526973834204
98.673550306023
98.7603772541738
98.7645914099801
98.7440205712301
98.6786234169713
98.6813262294898
98.8340676707167
98.9197744195243
98.7454110697995
98.6341069717253
98.6563381026983
98.8768306579702
98.9543045150082
98.7558976954694
98.3813794462577
98.3295024086936
98.3682759306176
98.4971679058178
98.5218534900323
98.5729916783227
98.5909464685767
98.6621600640168
98.7757128299248
98.659406347522
98.5192627209174
98.3870831786424
98.3503447516257
98.4537998132654
98.4486667935956
98.5775351291786
98.5644371024818
98.4067872912875
98.4118068722358
98.5946142690107
98.5350881917198
98.5328241711414
98.4770431458602
98.3320781020248
98.3103250365477
98.4142774276721
98.5326124050843
98.521286402779
98.5264893952231
98.5243388338767
98.5303715361046
98.5370327571443
98.4167007336874
98.4008037250157
98.5005295530209
98.4566367878439
98.4334786322322
98.4099602667873
98.2978920899188
98.3062371528542
98.3383247904665
98.5564520386098
98.5359332196056
98.4618893720678
98.3588549654632
98.1078868539216
98.0955319280323
98.2167448056677
98.3070600439935
98.3366188095183
98.3843429821145
98.4224384890121
98.3485922996585
98.3075548094438
98.3266249950285
98.3256725715574
98.3043315220131
98.3228249264907
98.332203301479
98.3019725660002
98.3139851485968
98.342707625157
98.307062703918
98.4178343969229
98.356743072156
98.232457639725
98.0891604150662
97.9657349104141
97.9860515282023
98.0519684527553
98.1551843671338
98.2368717611498
98.2381549760507
98.1449507645911
98.0312765834271
98.0706603829399
98.1442826189407
98.151367826154
98.1480095633632
98.1400711456304
98.1766553113178
98.1368917650983
98.0057563610018
98.0137180685542
98.043294073915
98.1126752722438
98.0990064912506
97.9971202734382
97.9699622723785
97.9429937310986
97.9343600465418
97.9801940456839
97.9819925392695
97.9829199072085
97.9666772205155
97.9536416374846
97.9212813952224
97.9368778780865
97.9381852257315
97.9261965462233
97.93447200162
97.9472618185447
97.9033871391063
97.8824033754491
97.8374672072348
97.8706058275333
97.8493912465584
97.8276723112768
97.8362360099764
97.8309145406742
97.7611684593829
97.7364403359588
97.753698299776
97.7318800895701
97.72313154939
97.7787303847234
97.7951208513993
97.7971503340609
97.7820553350138
97.7609863958709
97.7433242795531
97.6792720901925
97.6353096616266
97.6703834793488
97.6940570580936
97.7185273650017
97.6879492871215
97.6025275997195
97.545884686388
97.5536318009779
97.5230888893148
97.5252310938544
97.5423418529471
97.5861173272327
97.5366936306305
97.464089316297
97.4200066038087
97.421959986222
97.4356266748333
97.4787894426038
97.4843116240399
97.4578460518241
97.3850925595316
97.3748779626367
97.4110802021208
97.4399150365643
97.3622404111318
97.2943631361306
97.2860096791796
97.2743842700408
97.1890890032376
97.1968321884378
97.2410586393092
97.1823213039362
97.0976025508062
97.126788477299
97.104378248976
97.0171099814104
96.9573425077904
96.9716188587621
96.9740319023616
96.9451468435227
96.8892988485952
96.8817944100774
96.9041075265264
96.9332339931191
96.9199642457749
96.8876497070334
96.8477918815371
96.8564112005501
96.8383871310951
96.8326854032436
96.8701661673058
96.8688539191952
96.7669553567976
96.7371014089036
96.7531140282115
96.7521662938151
96.7331061712874
96.7101027748699
96.6770348318422
96.6968173925898
96.7001387844209
96.7155672200228
96.674671838656
96.583974950182
96.5172093247619
96.5476595259295
96.5906920990466
96.6065509199278
96.5813501413931
96.584723093045
96.5850822266359
96.5956531473111
96.5521325053823
96.5081661320209
96.430826513981
96.3939940765243
96.4401912759049
96.4358527079906
96.3767670121023
96.3936962764185
96.3696528835781
96.3132463999891
96.3005142222455
96.3208227850031
96.2633059406059
96.2096979277724
96.1616193718189
96.1693170581271
96.1983646076928
96.1781280463603
96.1178161097248
96.0905052989212
96.0839763057702
96.1050672360791
96.1192152181142
96.10042202522
96.0370191086404
96.0052151262577
95.9784692638467
95.9997058942045
95.9845281041745
95.9180761284264
95.8406353354775
95.7859731003127
95.758510811086
95.7465287322769
95.7499531252269
95.787149042409
95.744592741403
95.6938415097899
95.6389909301115
95.6166660046975
95.6014012295335
95.5727770310728
95.5552020360097
95.5640433597588
95.5072400345535
95.4779797602257
95.4855283311671
95.4801925414872
95.4279063635863
95.3934590004125
95.413485850769
95.4134174577438
95.3394701353675
95.3148916231938
95.2912659720013
95.2974987106235
95.3408009550294
95.3495656862191
95.3121987730546
95.2864591613755
95.224321428012
95.2120990824358
95.2553657102505
95.2391270440099
95.1981537704703
95.1817985927563
95.1579303080744
95.1553365426563
95.1105608112336
95.1278511075814
95.1400277379554
95.1171010926234
95.0672151312142
95.027545537209
94.9922214667743
94.9946331422577
95.0047414932931
95.0178881276166
94.9819102814378
94.9217742213651
94.8688837668853
94.8856018469625
94.8771652856348
94.8202670673172
94.8102134354982
94.8156167489518
94.7564022736178
94.7283040661407
94.718064025378
94.6918953912933
94.6466012600872
94.6198442613173
94.5996908392208
94.6022482661447
94.5539146621746
94.5407302790428
94.525874953738
94.4493307775821
94.3899258557828
94.3756907711863
94.3036818256666
94.2892959551482
94.3021706829144
94.2307372402638
94.1436532546975
94.1186113146195
94.0558281464
94.0303087758155
94.0091382071905
93.963985076582
93.9295938522784
93.9083991161891
93.8471115166523
93.7919093047386
93.7685391160386
93.7472716567758
93.703014460087
93.6659026475063
93.6126085665536
93.6107172274535
93.5787002595494
93.5349270828464
93.5056247648685
93.532416711641
93.5111841005679
93.4757446374375
93.5011655705234
93.5266185288086
93.4890553986379
93.4673138360195
93.4588213464799
93.4960212631329
93.5112204499187
93.4939743169159
93.4947890191704
93.5243343597679
93.5291455431949
93.5736401042852
93.6135696619481
93.6451121660028
93.6421688836959
93.6118833264721
93.5883432369349
93.6249891411837
93.6147799347262
93.6177584722099
93.6424407026744
93.6785016578123
93.6902059171229
93.6754097347017
93.6683564339443
93.6691075975177
93.6724715699799
93.681360429913
93.6171682466718
93.5754068558768
93.5693895073196
93.5935481266978
93.5840660247589
93.5499622657378
93.5336012181726
93.5481527183435
93.5450763882517
93.5363912884378
93.5153296051796
93.5501035860658
93.5665317430124
93.5435519310856
93.4976340657592
93.4747510907683
93.470175018941
93.517214378779
93.5173638989053
93.4810464185417
93.4670244546793
93.4759251042676
93.4558349340933
93.4407206447897
93.4158064570505
93.4491488446664
93.4878526980669
93.4605736321927
93.4474832362365
93.4763367476266
93.4169985851871
93.3984232076727
93.4166761948633
93.4202468599463
93.4043890098342
93.4112872510752
93.4146436242878
93.3860925300687
93.3627590139422
93.4015275816752
93.439918733444
93.4605874931613
93.4367752883292
93.4387755812125
93.422349016264
93.3992215483695
93.4234486615353
93.4706060357977
93.5068156931021
93.5716099092404
93.5878954293447
93.5592959611709
93.5328505858085
93.5488751608436
93.5432331101745
93.5667547246406
93.6110076472012
93.6663554367783
93.6918153748661
93.716039117442
93.7493364137753
93.7827303545236
93.7924067498899
93.8332252423544
93.8204023924608
93.8012322012667
93.8281959085528
93.8878887495486
93.9248651243316
93.943995522228
93.9202525777679
93.9394459594243
93.9662242885109
94.0018752409395
94.0134507672311
94.040512814049
94.0621150990833
94.0323398882087
94.0243933228493
94.1008488085167
94.1080520948544
94.0856395780074
94.1012692402609
94.143552010948
94.115284450847
94.1363033743481
94.1752770572488
94.1821504801056
94.2017915911121
94.2644322719321
94.2852788981257
94.279489322272
94.2481514601029
94.2512361349275
94.2720402180071
94.300107269932
94.3456356575675
94.3711865162066
94.3600581145352
94.3509592097113
94.3871002641951
94.4634569719697
94.4473364099921
94.4204734017737
94.4307657674228
94.4560912716818
94.4679267201917
94.4943294291233
94.4864264350174
94.4892070044914
94.4972347558084
94.529372611753
94.5469299171601
94.5714733296117
94.6182001053449
94.6433222144797
94.6221152414737
94.6371724743879
94.6360308831952
94.6502833772895
94.6807682265201
94.6875891712675
94.6576658971107
94.6918463347383
94.7162378948742
94.7116155286678
94.6884395761175
94.6749791086401
94.6974061380818
94.7821409797727
94.8234845733645
94.8118304850301
94.7815659658201
94.7926108272471
94.8276587576333
94.8461496234389
94.8356787432742
94.8507446982023
94.8448476913767
94.8603304016752
94.8964388742462
94.9352762399275
94.9389872363537
94.9355740317238
94.9065079734541
94.9066815263749
94.9404658122412
94.9824388644011
94.984016756519
94.9734569408682
94.9770164986907
95.0050496917917
95.0161759390066
95.0199455913043
95.0256999333375
95.0560627903469
95.0376694198224
95.0243945041198
95.0346026650237
95.0560292457361
95.073164503598
95.1180753495873
95.1388613113992
95.1354245079307
95.1035399315867
95.1082567557282
95.1179760828821
95.1248686021952
95.1086420081073
95.1176358054788
95.1600613868225
95.2031904907197
95.2117573775733
95.2197056884425
95.2187404996946
95.238108366582
95.2607941995602
95.2724410230989
95.281278278369
95.3016667394713
95.272326245971
95.2484613440499
95.2610139605527
95.2854641913841
95.2863723357328
95.2563323342448
95.2242462670839
95.2871419828205
95.3304932470923
95.3680217278653
95.3950696836851
95.3967407974643
95.3898069054572
95.4028616415536
95.4038437932029
95.3989859644292
95.3886900281318
95.3989889457048
95.3975312513841
95.4005382553815
95.3826045687463
95.4009191013245
95.4322717478767
95.4245992082974
95.399076943186
95.4420355574706
95.4937912565973
95.5190872369397
95.5268867639149
95.5387771533814
95.5298546164433
95.5213089578816
95.5245028619854
95.5570290397243
95.5885408603792
95.6023587285768
95.5724008479116
95.5782006699056
95.5755041784091
95.5518391473498
95.5468756032599
95.5906910902786
95.6309702554251
95.6461108638774
95.6263684090427
95.6293261059604
95.6310301338234
95.6288264259884
95.6276016742467
95.6686017751781
95.688488872824
95.690720333801
95.6960926736604
95.7078824518295
95.7144795275105
95.7290047280166
95.7139302110337
95.7190615165892
95.7185747365197
95.7198518824261
95.7309513429131
95.7475786106745
95.758596218338
95.7670852987145
95.7790586133094
95.8007165041833
95.7939534368831
95.8166093157212
95.8307673488908
95.8309256675857
95.8322389586369
95.8392016740173
95.824195855564
95.8285857474803
95.8624879255052
95.8758845866091
95.8574215059148
95.8769151930262
95.8753792461092
95.885330972219
95.9045307250518
95.8975884275549
95.8894193318626
95.9083984618054
95.9221488805555
95.962892689851
95.9706249925424
95.9512087477012
95.9358292932478
95.9495196907346
95.9598678066433
95.9706975868634
95.9634349977824
95.9973932054806
96.0132146354703
95.9796838053024
95.9677476840535
95.9933157980815
96.023865095562
96.0420653347914
96.0331719505797
96.042313511299
96.059817154595
96.081049194613
96.0826497677846
96.0756695438599
96.0706629677931
96.0840046421865
96.079718627505
96.0798141064008
96.0640324403675
96.0719388280606
96.068454972884
96.0499269074892
96.0877439383792
96.1390687019972
96.1518005681823
96.160281165801
96.1503775683486
96.1467054205016
96.166922699754
96.1839332174929
96.1798677358547
96.1890168394967
96.1776031427266
96.1710942401666
96.182472825332
96.2367198308053
96.2716827331461
96.2523032654899
96.2116355150212
96.2177255174523
96.2301440741237
96.23305827172
96.2318865279019
96.2633053925191
96.2752786165075
96.2644550792734
96.2743404344516
96.2971746086563
96.2827149119944
96.2681512558397
96.2712648611305
96.289881088396
96.3071183446711
96.335972734914
96.3323696100006
96.3201626947441
96.3296424708586
96.3514361437501
96.3594202239914
96.3884406069951
96.3850730787538
96.3586510091761
96.3419305957684
96.3301866507503
96.3329380136906
96.358120039722
96.3512989443216
96.3595980759683
96.3613466552232
96.3608631155877
96.3874111614896
96.3988645366473
96.352734473354
96.3554389445323
96.3987404444495
96.4157047163005
96.3896163159638
96.3844528641537
96.3869196336388
96.3651247033126
96.3485589592616
96.3608099650461
96.3543452571063
96.3354495098486
96.3173057138377
96.327549330141
96.3192574313246
96.2794659649881
96.249215666596
96.2357183327244
96.2199148292529
96.2473988529248
96.2336010694994
96.1824697118254
96.1637301905735
96.193640044344
96.1853811220264
96.1763157350212
96.1856735676725
96.1924085683707
96.1791457066353
96.1719177847642
96.1769291924798
96.1833331923868
96.1522175599726
96.134557180442
96.1423810774396
96.136673730906
96.0908662662541
96.0753416735493
96.0759934816485
96.0634943818613
96.0183078315442
96.0050786507214
96.0049266447924
95.9810214820331
95.9463369065028
95.94922174649
95.9527511693703
95.9245886416698
95.8989691836918
95.9183939892133
95.9215587619854
95.9199685100913
95.9095552510962
95.9024320215972
95.9070671776349
95.8906902273326
95.8536274463014
95.8807913467539
95.8871535378736
95.858125367612
95.8624204015631
95.8786056329066
95.8490750988676
95.8211899691831
95.8169485268453
95.8253422213754
95.8219495287178
95.812538603707
95.7935317928391
95.7909125828053
95.7895877756035
95.7490246228303
95.7011591582986
95.6587586632737
95.6145560788207
95.6294395013347
95.6207670939166
95.5763620618046
95.5271023215686
95.4894650201239
95.4607546092014
95.4553836569169
95.4478934210971
95.4166006879491
95.3566948971959
95.3186443952828
95.2899384644204
95.2631041934365
95.2317328096135
95.2001492983353
95.1773786064555
95.1898392116958
95.170289363878
95.1408242219526
95.1216160573023
95.1107548587156
95.1056237426621
95.1295850190709
95.1319349643884
95.1176110547196
95.1115468670703
95.1052094349393
95.1155677623683
95.1393353122716
95.1361765186003
95.1301116665615
95.1241322756813
95.1262063178215
95.1334971707559
95.1396193787201
95.1412840689939
95.1677647262188
95.1742531173216
95.1665279218916
95.1516014538963
95.1593038646817
95.171869033836
95.1940376703723
95.221495094944
95.2306849426868
95.2133359114174
95.2056592690355
95.2046563127104
95.1996572270487
95.2101750531369
95.2131761287638
95.1845364861706
95.1936546048558
95.2091029764284
95.2118788935033
95.2160282520305
95.2284003028312
95.2095857416649
95.2192108959401
95.2536800071124
95.2775875149438
95.2630251923276
95.2770929969696
95.3065666586641
95.2957541332183
95.2914930083052
95.3257022920619
95.3368694504826
95.3424992661785
95.3449686794313
95.3572716214714
95.3629996758193
95.3825849020827
95.4325481463197
95.4620641420227
95.443931792285
95.4349899893585
95.4264907977492
95.4403394397398
95.470354725435
95.5035076160603
95.5165988339597
95.5269220937512
95.5493976404403
95.5635287660995
95.5750135048995
95.6062511015528
95.6244689118675
95.6293347660997
95.6242650383572
95.6255522746602
95.6280867501185
95.6598458202591
95.6790775588502
95.6896370081683
95.7076208371044
95.7316830070649
95.7525215964451
95.755651105774
95.7378645494049
95.7552415213425
95.7698993729255
95.7690169418769
95.769622632623
95.7798214625875
95.7731019570378
95.7744967631852
95.8084182916992
95.8415663090829
95.8470562945594
95.8453083001171
95.8507167958781
95.8753500002552
95.8694310768817
95.8873200159037
95.8932708574306
95.8823864935778
95.8910568630894
95.9033005151645
95.9175723794189
95.9254177843463
95.9204099325661
95.9327817310611
95.9453085559758
95.9568717938678
95.9399907063251
95.9319448209518
95.964769750477
95.9881013887803
95.9895862635688
95.9953010890511
95.9826455931825
95.9841232816293
95.989824505922
95.9986357835477
96.015953901358
96.0389241710293
96.0439200339221
96.0441987782852
96.0405907657253
96.0416117175532
96.0370391958591
96.0415043172983
96.0529691977368
96.0569839904547
96.0453597277739
96.0583691023431
96.0722245141174
96.0592770740037
96.0637833548496
96.0990344065895
96.1024219770799
96.0947907742485
96.0921499912347
96.0938546169145
96.0974340076587
96.1066067422754
96.1075112749736
96.1030641480359
96.0925000489081
96.0929694685466
96.1077207016504
96.1259709132044
96.1320641008555
96.1402381096993
96.1276167330865
96.1064412494372
96.0821186551766
96.0957943060707
96.1258369288659
96.1301335861001
96.1302572695277
96.1511200407644
96.1510348933819
96.1509809488681
96.150196710653
96.160524936773
96.1551452944703
96.1381992984436
96.1362851228673
96.148240261972
96.1554471126018
96.1653808050598
96.1648350734602
96.1449647091656
96.1269057247631
96.1482558774547
96.1674291396641
96.1686956016321
96.1565565685938
96.1427073235788
96.1330473386521
96.1501244681001
96.1709082630651
96.1781028647608
96.1744439700426
96.1569263479356
96.1470651429479
96.1481531414278
96.1486974284254
96.1524889449381
96.1532423605594
96.1706580374381
96.1784919899645
96.1834838234035
96.1685059492346
96.1660008205088
96.168400368933
96.175577194757
96.1823952795239
96.1967136794737
96.1987862465766
96.1964556419035
96.1847772192358
96.1819625809978
96.1967146915154
96.1965888604762
96.1787941931059
96.1767366866652
96.1892459079933
96.1878617992125
96.1834769285919
96.210267442301
96.2096685001773
96.1989758052673
96.1933272907047
96.1974299037618
96.1951978132314
96.2012585594954
96.2119161032956
96.2178039018856
96.2180569832579
96.2167403883831
96.2255518156267
96.2357896544515
96.2288449116142
96.2164441921859
96.2232317070698
96.2584272146929
96.2750139046517
96.2755300435916
96.2658376463917
96.2744944260136
96.272296377049
96.2544880425751
96.2281657965586
96.2402553149629
96.2624839703776
96.265652211404
96.275108244681
96.2857926485325
96.2810195505373
96.2810269724535
96.2828246270643
96.2951456027038
96.3088304588908
96.3043353980644
96.2914603652741
96.2978014482408
96.2873537317142
96.2788082909065
96.2851313991734
96.3013167695791
96.3128349979283
96.3000371222569
96.2872350737125
96.2893705885596
96.2896979607858
96.2861863359992
96.2659229911394
96.2619628487756
96.2905574603804
96.3050120346222
96.2995915975224
96.2948080236545
96.2830046396592
96.2799334205723
96.2988515250945
96.3149437841045
96.3125834969562
96.3024571166703
96.2814096623189
96.2893123699474
96.2967142934663
96.2934293134562
96.3015299622739
96.3157016244412
96.3321367125532
96.3524203067545
96.345997868181
96.3426745960306
96.3408580802752
96.3395283222658
96.332466624422
96.342465200377
96.3382068598797
96.3479240874433
96.3654248520395
96.3653381486479
96.3552243493017
96.3504322291221
96.3555749615238
96.385475480601
96.4182082435245
96.4101756021674
96.3660895115561
96.3483377923261
96.3869012541562
96.4096230396031
96.392483817457
96.4072933658692
96.4314865822492
96.4234023151923
96.4264794260437
96.4482382864362
96.4275580388985
96.4233878580952
96.4235253874587
96.4221331543198
96.4198396048368
96.4476262417104
96.4882949220997
96.4858130066436
96.4750240691871
96.463570938164
96.4538225821764
96.4646822895089
96.4608461011028
96.457613108447
96.4808822597149
96.5012255605921
96.488132522766
96.4857827964071
96.4987412941913
96.5319736299281
96.5452552506242
96.539177441191
96.4980117905964
96.4704622466205
96.5222521380055
96.5635991974103
96.5551803502177
96.5500198429879
96.5757030942034
96.5767499226402
96.5534055816899
96.5537837594986
96.537877452197
96.5451802811615
96.5694247466029
96.5710241606451
96.5751110652285
96.6025277533463
96.6066895099512
96.6108325828908
96.5937395938803
96.5517452738774
96.5277181222528
96.5809131503733
96.6156301632329
96.6003193551488
96.5774508271776
96.5800214448794
96.6232244402238
96.6738201024685
96.6709080129934
96.6205227685084
96.6209730446508
96.6702122348818
96.6571633295965
96.6456170009317
96.6512026514438
96.6298000286706
96.6169800939485
96.638443782141
96.647021986207
96.6531859727828
96.6713216734758
96.6860972168181
96.6814195838267
96.6869838834609
96.6517381334705
96.6086260068313
96.6353560401405
96.6855729869255
96.712055981415
96.7276804581744
96.7035227633286
96.6761018024897
96.6492963415701
96.6471595444297
96.6955570119878
96.7061827461439
96.656021205272
96.6433921910226
96.6667398766559
96.6965818132902
96.69787581073
96.6713901917505
96.665692768007
96.664443340058
96.6480897477529
96.6662641160046
96.6771566689467
96.6807904212663
96.6800676036933
96.6686254148443
96.708131083629
96.7253844737181
96.7018537224012
96.6736120301098
96.6691988648831
96.7022779393203
96.6914406185132
96.6659685668764
96.664632387561
96.6592106846121
96.631739347881
96.6262648509231
96.6343164919125
96.6582122572284
96.6687911620565
96.6971307483876
96.7408077899123
96.725094487336
96.6972125840753
96.7327362698
96.7227389857085
96.7016257231335
96.7031841264041
96.7278723535315
96.7358809052484
96.7406242919677
96.7539236219448
96.7426835096522
96.7097590153991
96.7134648610785
96.7500655989351
96.7433497288081
96.7112185686873
96.7204639914875
96.725240545566
96.7257357732392
96.7246130813891
96.7439450599857
96.7573312193912
96.7555835297036
96.7482361293749
96.7599475010626
96.7664477406553
96.7652855287033
96.7540037486971
96.736975199631
96.7186084502617
96.7610379490241
96.7639201321258
96.759395973727
96.7890972046125
96.784694498527
96.7463806221852
96.7625852347153
96.7556945300627
96.728538339846
96.7578881038967
96.7727854334395
96.7908479574361
96.7812394421424
96.7487952741361
96.7571433113563
96.7694781137158
96.7804259406548
96.7832179428359
96.7969453842596
96.8093768442243
96.8099688381491
96.7914318514966
96.7783394474584
96.780092243827
96.7758757113212
96.773727272447
96.7911964278504
96.7610037260318
96.7650006525268
96.8231535839465
96.8559110956228
96.8521461274832
96.7820528701429
96.7265932649735
96.7908268559125
96.8368550565953
96.7901564977188
96.7639261976499
96.7921307756397
96.7920334340882
96.7994063158074
96.8171866332599
96.8221081677099
96.7855970719863
96.7760881116476
96.7949976915642
96.7957754600965
96.8115386759917
96.811959306266
96.8242823232378
96.8522317999507
96.8401016314866
96.8425966825077
96.836079773296
96.8008476707277
96.7812510362274
96.8010185853427
96.8683605082534
96.9021389139096
96.8499469892726
96.8270838506046
96.8609020524517
96.884204802524
96.8690506428251
96.8329539798456
96.7925182524558
96.8088203055757
96.8528223388729
96.8791869601207
96.8720233473509
96.843985670928
96.8336067583595
96.877353357766
96.8987929913771
96.8646973882706
96.8556620799683
96.9015263399932
96.9082299143786
96.8853537126017
96.8665388556952
96.8543551022558
96.8736499669234
96.8887348632133
96.8747441022098
96.8845836297572
96.8872479780372
96.8765656775014
96.8755172678955
96.8716503126101
96.8731794764232
96.8662502516148
96.8764636092397
96.9153930626035
96.9085009753128
96.873666813754
96.8900175584978
96.9091715293442
96.9156156731343
96.9160249497203
96.9218352479428
96.9190585220625
96.9167291083939
96.9392775841609
96.92456864136
96.8649718434666
96.8219830307785
96.8470484044898
96.8721852656258
96.8705406319451
96.8686711970294
96.9020449333535
96.9092356071434
96.9057540291496
96.9107007581798
96.8833672484733
96.8590950351309
96.8613507232998
96.8448180891701
96.8663350387019
96.9262808546242
96.9091681567116
96.8705105670658
96.8686686833304
96.8640155532645
96.8457064939257
96.8449412733853
96.8691738996058
96.8771048186155
96.8754151020484
96.8947837279865
96.9138174655651
96.9686591620292
97.0156103480074
97.0283293401285
97.0184401509456
96.9630003068298
97.0127878838743
97.1418046073542
97.0763836371016
96.9999242897419
97.1287206973578
97.1299704296195
97.0092606930906
97.0541787054652
97.066540473197
97.0213460467105
97.0354769380324
97.0057604376402
96.9702553935724
96.9584575226437
97.0057703111458
96.9974702954656
96.9257913353089
96.9268011125257
96.9965413385625
97.0144351295252
96.993411255475
96.9832328132195
96.9172371665885
96.9265927673778
96.9613213822127
96.977919612152
96.9428115761997
96.9337609098172
96.9578900306538
96.9964021611271
96.963159097284
96.9916747108127
96.9817429421726
97.0573178389581
97.0561686954451
97.0641943238197
96.9251560961821
96.9029654842249
96.8959556809664
97.0038448868926
96.9645009735729
97.0039461654893
96.8899330071447
96.9519863448124
96.8913472452433
96.8995027286395
96.764578515426
96.9115448141539
96.8771282600645
96.8848088531909
96.8081162960693
96.9419321902777
96.9231977018158
96.9148496697312
96.9030793083851
96.8946781122493
96.8969884073598
96.8970139270946
96.9602073947874
96.8922071912664
96.9424183557184
96.9450960331145
97.0073797077436
96.9953374392111
96.9681706293717
96.9718030799154
96.9653270569455
96.9791896680598
96.9697960625204
96.9652884614519
96.9690905646624
96.9854313506982
96.984350106654
96.9975528834302
97.0087522877014
97.0059493318074
97.0583991992754
97.0489927757856
97.0287969731936
97.0398316701773
97.0466087825254
97.0832402154008
97.0975424766982
97.0604488574377
97.0384221682022
97.0543007091241
97.1192408708458
97.1698836313
97.1509883578291
97.131300125735
97.1232709851557
97.1622561764531
97.2287802409082
97.2239369241703
97.2102336418258
97.2328774982638
97.2305715367676
97.2460752206474
97.2869705287005
97.3062593798962
97.3096118361625
97.3323222604866
97.3811521270415
97.3526181948447
97.3198349720137
97.3266428483543
97.3710310778094
97.3883877038744
97.4103456952216
97.4589977235921
97.4273848277712
97.4096552658189
97.4561810884708
97.4715328983968
97.4741372543287
97.529393427315
97.5685207980157
97.4741079550486
97.4323212073081
97.5083012150635
97.5419776913411
97.5092237323491
97.5182004025172
97.5072563332714
97.5550872763114
97.594420737911
97.6156739984705
97.5646820157779
97.5458341384544
97.585038961415
97.5549285543035
97.5082756143717
97.5553757058985
97.6000230876826
97.5391160804731
97.5509435490544
97.6577970517722
97.629849332023
97.5900476497578
97.6595261736707
97.6661638283873
97.629443924231
97.6538118344598
97.7373289302302
97.7459641612336
97.7009601657029
97.6065744815598
97.5916947668186
97.6379115612088
97.6565667850351
97.7483189456989
97.8181842025644
97.8553890644255
97.8914262316097
97.8252665617491
97.7637886805632
97.7992549792413
97.8450248468343
97.7656018572109
97.749622756972
97.7969862649454
97.7537023893109
97.7840102149192
97.8529765429131
97.871703038802
97.8755989970801
97.8210561633905
97.7481967891506
97.8028504748268
97.9075617498497
97.8945207010218
97.9562826910604
97.9646969380228
97.9140007670373
98.0485453037869
98.0424796546681
97.8434448224627
97.9085251549189
97.9882606769595
97.9170352136385
97.9017270873851
97.8983992793185
97.8800929760493
97.9410421072756
98.0168322251704
98.0451852372715
97.9605000628971
97.9198790128734
98.0459185419236
98.2104981781129
98.2642078770331
98.1229804896707
97.9013050043448
97.961902731853
98.1320709848663
98.2193070121681
98.2282915828273
98.2397454885865
98.1763696115615
98.1967807233494
98.2868698297018
98.3505173511376
98.3326129693237
98.2803940150495
98.4452675624632
98.5161146050991
98.3349914362828
98.2627832169294
98.2782106009064
98.2808021695278
98.2957122134287
98.2166045361987
98.2247267830642
98.2486647223773
98.2639769473455
98.3402830873047
98.5515744294606
98.5469402475282
98.4418043635889
98.5611963636077
98.6666701028357
98.6347374980438
98.631366783181
98.6494436442942
98.7492804864645
98.8264905485603
98.6165298682344
98.5369536605276
98.5975426841997
98.4935553644977
98.4400016136205
98.2819844214613
98.0682891112886
98.0434961314034
98.1066083466798
98.1216751850795
98.0646884401699
98.0231069784064
97.9395224843287
97.930797057782
97.9806282420091
97.9029783912581
97.7959530129568
97.7884286010638
97.854683966757
97.8139398701337
97.7341932312024
97.7785501403737
97.7669994399136
97.7024670140876
97.616589552589
97.5710657357311
97.5852031307946
97.6396031148177
97.6198937327306
97.5701887432501
97.542165566919
97.5298864687887
97.501048599326
97.4310468062239
97.414756683387
97.3830004577687
97.3293294419311
97.3180503398454
97.3566254507204
97.3942987662039
97.3471208478703
97.3096760957674
97.289020397681
97.2322907710238
97.2141888425179
97.2389100441683
97.262259558745
97.2692863851345
97.308695769364
97.3811766187382
97.4390528934922
97.3575868032625
97.3361417365607
97.3560465759429
97.2839949173619
97.2628598506615
97.3043548436861
97.3489294521115
97.3071590734181
97.2522337046633
97.2925485198095
97.3323955270711
97.2987980718788
97.2683289537884
97.3031258176416
97.3368006902094
97.3629693120777
97.3386619134142
97.3120937825282
97.3316344609603
97.3147127379172
97.2681427896643
97.312473741016
97.3519730329966
97.3354136519848
97.3468301837242
97.3144534198651
97.3572074316372
97.3691521521432
97.3539350918559
97.3422318854055
97.3797470932705
97.407837570094
97.3646537895058
97.3541819561316
97.4790370320696
97.5551904708577
97.5584122908292
97.5379907822083
97.4818041492875
97.4582471093376
97.518962200587
97.4971884968787
97.5171309397309
97.5815417944991
97.5215382652733
97.4267984049486
97.4466909953841
97.4628329620847
97.4797120250385
97.4938528287424
97.4963586456042
97.4552879088963
97.4972414930245
97.5725482149859
97.5680312337183
97.4258472311331
97.4436922936387
97.5403230276185
97.5395468312783
97.6166605516343
97.644938168619
97.6305027222268
97.6547621874246
97.6546562232196
97.6398593326163
97.7653360396528
97.8867004640687
97.8675842569241
97.9091585692605
97.9574540747332
97.9213547065095
98.0289841086787
97.9956624662985
97.8714188148145
97.8138231879244
97.9259768337392
97.978243999566
98.0003809296853
97.9564890086655
97.9727847970984
98.0860157314722
98.109842186594
98.0236029615429
98.0293886300359
97.9870408791855
97.9983673190574
98.1323990744062
98.118819606403
98.0062559083652
98.0084654497442
97.9837827860273
97.9561934107871
98.0623361614621
98.1094058616247
98.1035069985549
98.113665588403
97.9970434765437
97.8718934559865
97.926912628678
98.0508766814905
98.0975384699007
97.9000232271329
97.8639289326849
97.8694793584703
97.8794189458019
97.9975005683454
97.9664814953902
97.8754871791573
97.9443340429793
97.9998107488551
97.9472511886004
97.9299205155794
97.8578320516122
97.7170355019381
97.6003890692259
97.6804676049323
97.8642179282846
97.8296342494884
97.7991526236475
97.8122990846917
97.6793504347253
97.6546948469698
97.7459550283701
97.7162032632407
97.6069151228365
97.6516327484742
97.7932256594555
97.7285605195845
97.7134617291205
97.7760739352126
97.7929517500142
97.7951680511461
97.82942292115
97.8044092125803
97.7741531651813
97.7908411904192
97.7870376338658
97.8345597655986
97.9844317024757
97.9637676605372
97.8468442948531
97.8190909149943
97.9323179604742
98.0318059676174
98.0089263993962
97.9872238220355
98.0177968690585
97.9956548776826
97.9327463872142
97.9255162904819
97.8091731872341
97.6796677111929
97.6198112258773
97.6673853206891
97.7092380808009
97.7799689104414
97.7605004945237
97.7311207800594
97.7012937620859
97.6187516478975
97.5806822555591
97.766577811152
97.8341894770783
97.7629170834025
97.6564455048836
97.6461876666645
97.6286984901265
97.6357526643221
97.6367172983788
97.4928482429384
97.4316514483254
97.4772592806703
97.5346950841194
97.4839351559308
97.4466410749784
97.5893750337299
97.6061718887215
97.4648791033529
97.3819784667538
97.4660873766841
97.4572843076509
97.387769389442
97.4256515567825
97.4340374406843
97.4057588712282
97.4200718676883
97.429845984144
97.4118577809268
97.3864004181849
97.3543151752446
97.3861277514114
97.3982797507912
97.341584233783
97.371579526991
97.3870555395084
97.3463232059593
97.373354485976
97.2720565249728
97.1594161030809
97.1705911003246
97.2573600411629
97.3949113458778
97.465382156488
97.2789262222859
97.1666350966245
97.2131386512865
97.3194327340681
97.3316777612481
97.3073292235835
97.2557192279754
97.2818259471647
97.2570350827004
97.2255836900913
97.2023594279904
97.2253325408865
97.2615364971246
97.3418487744187
97.3555750940876
97.3119413858486
97.2980588773817
97.2529997159459
97.2264119127058
97.2519218650706
97.2298923513072
97.2579351651425
97.280735897918
97.297281597667
97.2324434322516
97.2243740662221
97.2355943590589
97.2020226338482
97.217466435052
97.3026692466584
97.2394820614743
97.1176118729526
97.1170408810758
97.2042820427577
97.2541697086531
97.2432130495118
97.2047790378233
97.1735028540758
97.1937979731979
97.212823640036
97.2133551475478
97.2169207006861
97.2188080270079
97.2257957056817
97.237452270677
97.2192141719507
97.2381334643612
97.2188909498392
97.2139005315245
97.2102059099006
97.2174709599505
97.2832404552751
97.1896229100673
97.0238418778986
96.9618604290784
97.0030742180756
97.0842871218748
97.1750000240242
97.213187477494
97.2299458292675
97.2003016847437
97.2022735852314
97.221188311617
97.2259919420415
97.2075916145489
97.1774366612755
97.1656970443096
97.1561361192065
97.1497100865371
97.216399934782
97.2344354003775
97.2040254804592
97.1678795419218
97.1853013527757
97.2215521920259
97.1952830617348
97.1340969579406
97.1771641681271
97.2455025766834
96.9894267277051
96.8735008125816
96.9622084353602
97.1059799081306
97.1817522622827
97.2147955269735
97.241825308142
97.2136534194297
97.1298539166736
97.1238005722779
97.1411753080412
97.1375649137714
97.1041112024357
97.1457807879923
97.2788092034355
97.1936611725853
96.9235092308656
96.8629209658855
96.9844765656803
97.2149763607515
97.1595382562292
97.0150345908713
97.0429351509946
97.0864183978145
97.1086693866604
97.118790733233
97.161026154489
97.1955203492058
97.1767661055655
97.1145946045664
97.1691925052805
97.1994645106868
97.1969421554874
97.1779914114552
97.1788429906062
97.1718583211444
97.0891056183483
97.068136459107
97.1294975026917
97.1327782344986
97.1409758623863
97.1649473770221
97.1666279072959
97.1638202649929
97.2159063977174
97.1633768881176
97.0933287760598
97.0859300079405
96.9954544483923
96.9486934975136
97.0617972009568
97.1440842123957
97.0655086333641
97.0315861418885
97.2127292735538
97.1143347571129
96.9784353058529
96.8762928191332
96.8807815449718
97.0091245823552
97.0987392066952
97.1296837318441
97.1808063673712
97.2228377710471
97.0553326989069
96.9976575549586
97.0536916504417
97.199276095857
97.0865772226
97.0061225767222
96.9916892550327
97.0520387132124
97.1399243144376
97.1702535436379
97.0078687148853
97.0849754684387
97.149666742533
97.0062528233524
96.810838876372
96.6490795956455
96.9236208788182
97.0995950158461
96.9499431366289
96.9362485821078
97.0003868837092
97.1072832943811
97.0878442348498
97.1976151187396
97.1108066778535
96.8447605207524
96.8955940257785
96.9796835981512
97.0561178064121
97.0867764862402
96.9376531087751
96.9239615690165
96.9604220981922
96.9802797930076
97.0545496530426
97.0885435616222
96.6960173439516
96.691891989744
96.6395803745165
96.5792969981641
96.5177821270123
96.5412893533108
96.6358350926562
96.6956953794746
96.6114834011056
96.407155270701
96.3763893550227
96.5269937613163
96.359728149158
96.1460863367894
96.1552926017421
96.1474836745
96.2437315720535
96.2856411934219
96.029360482948
95.5088442545804
95.4196149754656
95.7097666573016
95.8087502832827
95.6127330598539
95.5939000693994
95.6057940164549
95.628578097682
95.5772157228549
95.5268307217399
95.4517169959288
95.3373928069957
95.2912977552689
95.2283937824788
95.2608912627652
95.2626234310006
95.1140718881139
94.6858031300563
94.5534673200589
94.7948393657532
94.7304780496116
94.7002823418722
94.7578741917979
94.9553118146736
95.0150412273076
94.9048327684554
94.8301568247716
94.8948434231209
94.9132166801691
94.6778098641647
94.6353374045678
94.6109172118914
94.5754984945374
94.7133987759536
94.9281746636039
94.8889095262994
94.0494825516897
94.1965514653162
94.5594750195292
94.9332152048606
94.7863102128748
94.3617230040081
94.5996738225082
94.9175033710729
95.0599654354417
95.1693719427135
95.1382227211685
95.0646442409723
94.9728217555159
94.8740675845044
94.992117028735
95.1980993648236
95.0603201582031
94.5415307364489
94.2491597505939
94.7696579087456
95.2218654292356
95.2709255560759
95.2414821829654
95.3436131640736
95.3987887791118
95.5827539438917
95.4127809189405
95.0081538848214
95.146375634932
95.4402011807311
95.4939419914457
95.3607439938474
95.5243336992373
95.2288635992467
95.1145030720151
95.2552554391736
95.5125127599095
95.5744293361429
95.6509137180818
95.6874908455813
95.4083385211712
95.2933360474115
95.3913641294425
95.512081323017
95.5691687656517
95.5785498939075
95.5401548947083
95.5477738130783
95.57041672607
95.3826232192146
95.0498813760383
94.2642815572826
94.672408649715
95.2324433463341
95.5923274098201
95.6636931849085
95.4025841515547
95.2632140677525
94.9652995345048
95.0345585109215
95.3459387263578
95.4806316605333
95.5259287860201
95.5256327723614
95.4615064010326
95.4236295264819
95.4861037436471
95.292521125044
95.3789321229796
95.1144473618189
94.7033231000912
95.0636612875269
95.402803656967
95.5419431919354
95.5954997146596
95.577930088049
95.6253173790402
95.5028328049047
95.2994057559811
95.3961288325579
95.5107925555367
95.6611151872085
95.4404470572275
95.2814999220877
95.4258172664786
95.543320238205
95.6311258719981
95.6508563783198
95.8048832608088
95.6113032931934
95.1767747528145
95.4030615703546
95.6418967934153
95.8117370208734
95.8620514683011
95.8786239157821
95.8843346629115
95.8207191705006
95.7758110419108
95.8072065357502
95.7950244529114
95.873109190071
95.9267571304797
95.9703341555277
95.9304223637606
95.9482733791625
95.9570147751618
95.9944753278697
96.0318468180305
96.0486210083007
96.0663595390241
96.0569674806288
96.0420461748188
96.0368082270002
96.0351601406263
96.0857692893997
96.0995605469168
96.1311947179453
96.1314960182492
96.1328096931793
96.138296165494
96.1609352666997
96.1769706246815
96.1920916943382
96.204868844963
96.2164265873705
96.2209335729347
96.21212684624
96.1964912370425
96.2006229339178
96.2028596460245
96.2262230379099
96.2763103257544
95.8498782233808
95.728784535564
96.0199588878247
96.193817058437
96.2640816744713
96.3039840452561
96.3977145934378
96.0415593131728
95.8090600113955
95.9920007213913
96.1832467372172
96.3096462829222
96.1837822998234
96.0929572568951
96.1681323551609
96.1976825864405
96.3598218235272
96.1055313782984
95.7071424771183
95.3634992707787
95.0838925090903
95.6641566047847
96.260166530405
96.2809580289036
95.9223746024981
96.0599277977076
96.1953728327873
96.321464020262
96.0283666913121
95.9287251256969
96.1058255404332
96.2030848916689
96.3411136892435
96.1658795628631
95.8836687492473
95.9916796298115
95.9494498940311
95.7791998069929
95.919333916758
95.7939918242443
95.34382867803
95.5570506912806
96.1146838216259
96.2861444732322
96.4276901602782
96.390059915131
95.9435188335515
95.9471526288225
96.011817293335
96.2100685019813
96.3909433230353
96.3515268968594
96.1589251161438
96.1635137412908
96.2252676577758
95.9342715966408
96.1903327806805
96.2747781701842
96.2320012447358
95.9660408835215
95.6582728703269
95.9653702951641
96.4197501129723
96.3151843801073
96.0081970322378
96.1044705904063
96.095621973829
96.3738655359413
96.5116469006812
96.2594365078509
96.3365670043449
96.3238297243286
96.2813794259647
96.2125470888412
95.9334539800885
95.6695088818139
95.5759372745357
96.0501403467113
96.4807350110974
96.6033136499841
96.5746353906739
96.5372806962712
96.6753719286371
96.4299697349555
96.3669200097072
96.5504339626834
96.2314589464066
96.2879507052567
96.5105139211737
96.5924261071998
96.6737407173878
96.6653222797883
96.466553248431
96.1381533266081
96.2505487130531
96.402561621931
96.2731269586555
96.3636992756953
96.4556263225036
96.5156400850791
96.4702937754303
96.4535755203875
96.2955049945193
96.2328987016189
96.2662678807582
96.2742758312629
96.3683348627225
96.2330668598975
95.9476199068296
96.1972404827763
96.0801604974084
95.9986084965433
95.7436719510229
95.753496482295
96.0129930409352
96.1252304366017
96.1697436673091
96.0845671452545
96.104765156288
96.0183023523234
95.6291015566499
95.6916543243276
95.7499431146256
95.7686286725314
95.7149998553425
95.6645291333333
95.4093965047344
95.2930154987273
94.9794059870705
94.7441520835199
94.9941066044309
95.1194362560374
95.3152098989298
95.2955793739936
95.2381511644987
95.2168247741448
95.2447953072022
95.2457532224036
94.9733166149353
95.0362677826228
95.1591778826034
95.1840956226488
95.2096439607259
95.2164913665189
95.2160129278555
95.1921348965118
95.1707419925491
95.1275865030327
95.1503732676897
95.1662707305419
94.6609616017096
94.6043351967773
94.8173324195113
94.8460718648414
94.7729191460825
94.7022688302799
94.675469973837
94.4245696230398
94.2901247129121
94.3557541641476
94.3657496638006
94.3743564989614
94.380294371377
94.3461316503196
94.1108374237397
94.2296038840758
94.3142029853992
94.4992991212003
94.353955870165
94.0014872313872
94.271789209007
94.3982162349247
94.6433594314969
94.8016666226223
94.902183623118
94.9515355006116
94.9784289799849
94.9459428457381
94.9834674769722
95.0145583980279
95.0652025427402
95.0939049865821
95.1233443670775
95.1553350192281
94.9495927918924
94.9651849184093
95.1251632981157
95.1863766207122
95.2224553080551
95.2955072710161
95.1705307424146
95.006433153089
95.102307987928
95.2340143207682
95.2398741700056
95.0421567590334
95.0776976839443
95.3017708378767
95.3629406828277
95.3945801342362
95.4055503282453
95.4495054576066
95.4333676356557
95.1435953098468
95.1449583373569
95.2609841706879
95.3071334112431
95.2657645776105
95.230989618368
95.1534866236476
95.0989531129577
95.0013035106482
94.9256728107147
94.7941633086649
94.7147033991012
94.6479817631558
94.4813736122339
94.2622681924692
94.1162582767701
94.0965534774728
94.0382537741929
93.9704036631149
93.9272468877912
93.7879906714161
93.7532587330217
93.8060618152108
93.839738953582
93.8365948786596
93.8539511490835
93.5794608885918
93.5463236945143
93.5787697929495
93.5637986995146
93.6424220640107
93.6679121117136
93.6961741181157
93.7042518188837
93.695371547374
93.664587026122
93.7178447444818
93.7804052900518
93.8393799043608
93.9097305477865
93.9672253063225
93.9963614155125
94.0406338178093
94.0793165935313
94.0909540973543
94.0803870968843
94.0267791007004
93.9683919545095
93.8688061047675
93.8000303629022
93.625094357759
93.3794024145184
93.2143342244947
93.212368492258
93.2670362893913
93.175482545375
93.1635085055737
93.1400749993433
93.1404093967012
93.1217730951516
93.1577965763864
93.2085701185913
93.2767439613876
93.3514432268751
93.4254286400169
93.4669396308809
93.4971425358975
93.4979881176935
93.4846598272897
93.4339781136692
93.4051189893027
93.3372970364672
93.2329904522861
93.0744559153835
92.9326974112446
92.8159895397924
92.6598088243708
92.5751758755506
92.474410051032
92.4063012437325
92.3590708741079
92.3720891783322
92.4528314246238
92.5385551203798
92.6383831712373
92.7209161668582
92.8334321380108
92.9644076447155
93.0784388685173
93.1898538960719
93.3009874335824
93.4082477797843
93.5220295006015
93.6279898805417
93.7293818457597
93.8214909803603
93.9012685055695
93.9599888852272
94.0139618807725
94.0713479733273
94.0978015127246
94.1094406532127
94.1171090129739
94.1248781994575
94.1228639865272
94.1363045028237
94.1501365115175
94.143716627938
94.1422173752015
94.1287997992118
94.1058846655028
94.073963630576
94.0198012914854
93.9601874005314
93.8957713406475
93.8379291051619
93.8119509856656
93.8237992670415
93.8395421230746
93.8533879718763
93.8747019726675
93.9089037506372
93.9304897702729
93.9586261129443
93.9717830696651
94.0058231984351
94.0432690787232
94.0811268382937
94.1203353103741
94.1576048599465
94.1858801251612
94.2090633940184
94.2454207869189
94.2721472716666
94.2898508248387
94.3154219818498
94.3296378052869
94.3394314494212
94.3765063761554
94.405181568698
94.4332537750888
94.448497503627
94.4573922771645
94.4747038145809
94.4888450037864
94.4814698501711
94.4705359777481
94.448773822737
94.4348791162044
94.4192542309254
94.4003523571253
94.3934713299203
94.3926972258068
94.3952796663499
94.4084231192497
94.4293992879114
94.4467455393795
94.4714787661111
94.5020936614215
94.5114571695992
94.5063413847571
94.5020311428274
94.4905035262294
94.4688407567478
94.4534797724308
94.454237337453
94.4762306232386
94.5091348354163
94.5466519098049
94.5764914271501
94.6095414441028
94.6497596976316
94.6882645769487
94.7193420727806
94.7440277174363
94.784121563209
94.8340099839364
94.8734934158596
94.9108840740644
94.9672872047228
95.033308254036
95.0828073335071
95.1232574899107
95.1640479856257
95.2070318424083
95.2407623277054
95.2583344005108
95.2680509256386
95.2628495452398
95.2343203771196
95.1845524102693
95.1005097098319
94.9865206113774
94.8629004288074
94.7554470627401
94.6659854346952
94.5980300355664
94.5562053624802
94.5309494453384
94.5182029844604
94.5201496223575
94.5253527023913
94.5433335471625
94.5766392953577
94.6285015041953
94.6889780843034
94.7479785326373
94.8054831915242
94.8712627168363
94.9422301598422
95.0120950071857
95.0801696331808
95.1412818903079
95.1937939748502
95.2452716505782
95.2912255404994
95.3248808424854
95.3529615148351
95.3698574420455
95.3851296866636
95.3886145053675
95.3744748031347
95.3507095497214
95.3157879141905
95.2750218121232
95.2341750645157
95.1879009801626
95.1242705876199
95.0413974541699
94.9393968165191
94.8250302568387
94.6822400857328
94.5021343855332
94.294642589582
94.0506134923763
93.7490701755044
93.4003469521281
93.0218034609919
92.6189001237344
92.2062764856591
91.8107017529403
91.4575612846936
91.165196884425
90.9498886039922
90.8182252579799
90.7620980418663
90.7756298526788
90.849409068854
90.9598615064783
91.079763750472
91.2101269597041
91.352469402831
91.4945250454812
91.6405198341603
91.7915093285575
91.9395864590229
92.0752991335111
92.199618938372
92.3241593759062
92.4689464991359
92.6249762637528
92.785100634873
92.9704494359742
93.1685806575813
93.3626842763435
93.5369271276765
93.6829038175359
93.8048318863331
93.8930046902487
93.9421383924289
93.9438252029734
93.8998432363887
93.8230449972354
93.7187781031428
93.6096996660483
93.4988276815647
93.3818625632922
93.2563444529209
93.1033743100278
92.9103677680843
92.6760904164041
92.4089073019143
92.1367992620493
91.868449876467
91.6290585473653
91.4470598337306
91.2810607754963
91.1008161934409
90.9114481045654
90.6922242011976
90.4191582390761
90.0885025057529
89.6876296583906
89.2324239225998
88.7648582791133
88.3331094375683
87.981397011852
87.7290179061771
87.5834989768587
87.5272325085864
87.5293228018124
87.5603972704654
87.5840754551467
87.5810537634322
87.5656402856946
87.5602995739811
87.5642882787231
87.5878520105543
87.6489486188167
87.7604914353726
87.9100564631698
88.0648632971804
88.2250294005097
88.3950641430794
88.5624298664269
88.7287995918965
88.9054022364415
89.0696453207248
89.1904845563464
89.2817975355802
89.359480727705
89.421191436231
89.4777939363768
89.525481216705
89.5523146267369
89.5783694504612
89.6027549568932
89.5991425590122
89.5637081085433
89.4939670272637
89.3867762449474
89.2210359843332
88.9950283505606
88.742934865543
88.4934022786653
88.270002697165
88.0724316380881
87.9027305832222
87.7618035597243
87.633467542807
87.4851931436845
87.2978517296559
87.0891334196312
86.8489999597999
86.5459392486952
86.1856858069231
85.7758103882504
85.3011932093335
84.7695835607516
84.1893919400072
83.5553978258908
82.9125025393803
82.3326008007427
81.8491101377047
81.4577167128665
81.1594138870666
80.9433661156975
80.7781599959241
80.6487577695466
80.5629834430354
80.5452424696811
80.5962967218076
80.7063598684366
80.8798470167453
81.1083960520075
81.3621734719797
81.6331587838097
81.9259568705797
82.2023405271331
82.4469712665562
82.6614785383026
82.8132421564845
82.8624550157117
82.7984393183757
82.6280432078571
82.3608020394584
82.0143724784474
81.605709932218
81.162989106547
80.7186847192711
80.3123144518885
79.9856983735256
79.746575689789
79.5883739568243
79.497207144635
79.4512617322423
79.4521120666667
79.4976567714151
79.5654617060553
79.6432006245804
79.736281014385
79.8420780561925
79.9604929437926
80.0853960242566
80.1899432509066
80.2778981849421
80.3734814169488
80.4731536334962
80.5522821976393
80.6017665893782
80.6207141883538
80.6214386776017
80.6205648630597
80.6288677575225
80.6693695168295
80.7227581014142
80.763983997517
80.7963915100511
80.8163256246383
80.834605346524
80.8519017238525
80.8583702634226
80.8587881001306
80.8350599218412
80.7725972902216
80.6892086249327
80.5913943760764
80.495423037535
80.4234885729867
80.3878058007883
80.3733553963776
80.3873607870237
80.4382562602196
80.5108772988189
80.6007977257129
80.699894697691
80.7952562370216
80.8826654878342
80.9468464457667
80.9753734700656
80.9730699207577
80.9167378283763
80.8152709022442
80.7115532776392
80.6318788522957
80.5961578386992
80.6353941534882
80.7675723501119
80.9630661621362
81.1953320361987
81.4484916722895
81.7023980881615
81.9495748992784
82.1923754216036
82.4254736592039
82.6493443721398
82.8503409913339
83.0321127257387
83.2131620196166
83.3850645486945
83.5474793523162
83.6894380030698
83.8197412934214
83.956443542082
84.086823954688
84.2200109098084
84.3656137579446
84.5107333956231
84.6565951078988
84.8055602603376
84.9494986290474
85.0883939118464
85.2389253164154
85.3887335935932
85.5290758981569
85.6666619473808
85.7943913901998
85.9317832467845
86.066231185082
86.1877056913275
86.3118589271146
86.4401492510994
86.5747313571792
86.6941682009852
86.8011580536994
86.9151567632388
87.0221266373833
87.1191360062512
87.213794797247
87.3156180283814
87.4156222193413
87.5113487311529
87.5986096259036
87.6760116219294
87.7529063547705
87.8270427029347
87.9002120844744
87.970860809738
88.0376028605811
88.0988016580603
88.1623916692336
88.2327685910599
88.2968107456285
88.3557375156477
88.4171612791226
88.4851651166222
88.5489023808689
88.6044867341352
88.6674515455001
88.7366216431475
88.8062747565437
88.8635008562087
88.9072676716087
88.961213851183
89.0301053931533
89.0968839001156
89.1300153978859
89.1581081448883
89.2127200074543
89.2450092387643
89.2526870567909
89.2463566290649
89.2478855383323
89.2615449460898
89.2588166002732
89.2491824700756
89.2393363620491
89.2262983393093
89.2274701017379
89.232319676056
89.216582134825
89.1652088026739
89.1066567526481
89.0805703534535
89.0631490281262
89.0293675499641
88.9939891583283
88.9806522928049
88.9947164775626
88.9970530262192
88.9901751932201
89.0156441904496
89.0772201602676
89.1271059515118
89.1671239655347
89.2252008125638
89.2939487948324
89.3719036105434
89.434423571279
89.5100517940109
89.6039619711307
89.6793902402659
89.750641578961
89.8114279453238
89.8678972550323
89.9653661580897
90.0578888105238
90.1186196721502
90.1837717028631
90.2443092177709
90.3127300005277
90.3597310336508
90.3928783965491
90.4436191927695
90.5085168109103
90.5760236887707
90.6227197174452
90.6550090057568
90.7038125249081
90.772082481685
90.8285958897368
90.8775919532484
90.9392890228367
90.9785216754868
90.9858098082163
91.0016632801924
91.0357862192845
91.0617790930555
91.0781734423216
91.1199864360191
91.1787276251477
91.2219466626951
91.2551430577185
91.263102157906
91.2813971168597
91.3341123276024
91.3879060585149
91.4110007862346
91.4267540865327
91.4352414944797
91.4327417921463
91.4639739067713
91.4971569238857
91.5182515983749
91.5221557881129
91.5309609311747
91.5530442346691
91.5929771533623
91.6271583758411
91.6530141660384
91.6761005100021
91.6708041468057
91.6743514639966
91.6936260428959
91.7339301766307
91.7663929384268
91.7855264216382
91.8242977760881
91.8443953781895
91.7956307313261
91.7651556885415
91.8270455969033
91.8526987973219
91.8466009954444
91.8505766419614
91.8532011384693
91.8655256121598
91.8890711304744
91.9216000414958
91.9330783444493
91.9226587264665
91.9432753910501
91.9614827167949
91.9569885360573
91.9711915419893
91.965307149338
91.9519886307735
91.9423272493322
91.9672113460186
91.9957129442733
91.9793108818232
91.9800958537377
92.0016662837653
92.0130161233957
92.009900010801
92.0101636801306
92.0117152767697
92.0238285038135
92.0217782876701
92.015248941887
91.9820681777251
91.985870909328
92.0336002615907
92.0052158423853
91.9941866701997
92.0021431270409
92.0205128445026
92.0351051249005
92.0010526935994
91.9698245444934
91.9753843969846
91.9771450840142
91.9901705918693
92.0079281100029
91.9963455997389
92.0109100904216
92.0333979093944
92.0309256024783
92.0533615110676
92.0651466459173
92.0130129498159
91.9874835177725
92.0195396251112
92.0360964279966
92.0245186262822
91.9786019254906
91.9313793944939
91.8865222636321
91.8777894941623
91.8980201709482
91.9173381367382
91.9414227768715
91.9494867550415
91.9455231496126
91.9431844965884
91.9242057203141
91.8723617455237
91.8330193637706
91.8127513426204
91.8276505799061
91.8927883092159
91.9048354164092
91.8349932836682
91.7557564265187
91.7137949998842
91.7423276336123
91.7815544663481
91.7792840273585
91.7620818699999
91.7469440920402
91.7244851476907
91.6867305826716
91.657320301911
91.6448987014719
91.6382223433972
91.6263021225175
91.6023485018102
91.6185139248465
91.6565337007089
91.6073991793178
91.5509459710479
91.5352968452747
91.475960265488
91.4066555763242
91.387668304597
91.3914716221766
91.4409764321457
91.415140300508
91.3180853711458
91.2944409581384
91.2337904778167
91.1967908285501
91.2221419590725
91.1379083842866
91.0773479715183
91.1030374760531
91.0465380410626
90.9398501676277
90.8636612688954
90.8079832605972
90.7496200696141
90.6325900887743
90.5287762253798
90.4417218488702
90.3106694792087
90.2013194736734
90.0828931897489
89.9669610532221
89.8927679549082
89.7953327653065
89.6321553025778
89.3948401187497
89.2063464009167
89.1125261841922
89.0237639024105
88.8942322884638
88.7859211449391
88.6758462412746
88.5442309851308
88.4478288878696
88.3103686880642
88.2170043678904
88.2021201113696
88.1418929557884
88.0448705024545
87.9560295262607
87.9168648555049
87.9221903959511
87.9142667329957
87.9441516463003
87.9336009844029
87.8446112779973
87.7421213887255
87.7537873569979
87.8409974714704
87.8838984844512
87.9726237763335
88.0377509471469
87.9274246672271
87.8381464277752
87.8751305413222
87.8523879998101
87.9698892101444
88.0823424715877
87.9878986797397
88.0535153402255
88.1057320615799
88.000990506569
87.8809585493274
87.7456623991765
87.6400023308308
87.4938147776846
87.3454443648648
87.0746647677766
86.8808894757114
86.6294187672367
86.3132689435727
86.0210878962348
85.7172029169785
85.4250406838676
85.2978968492185
85.1947508187189
85.0400534381441
85.153226511359
85.0703890889437
84.6917768212113
84.4941088052586
84.4443236904216
84.2698958982062
84.2654843932154
84.367875984743
84.6181537564083
84.8963725671105
84.7590850554135
84.578245615391
84.8503429038987
84.956760833458
84.9130965160385
85.3943465748849
85.7967624288974
85.5162450379343
85.1576230751427
84.9779827637218
