3596
4000.36533379555
650.420452594757
1
128
2
99.7824546045806
99.8219773197522
99.8389852297984
99.8142756075246
99.791094318251
99.789314246325
99.8352404497677
99.7542902592489
99.6704947718031
99.6446884311626
99.6891110249162
99.7025290387739
99.7107374953563
99.7226485331629
99.7784266057786
99.7946517390858
99.7743769780869
99.7304979602833
99.7249544338296
99.7360246629849
99.8025711337228
99.8327464414573
99.830245474437
99.7832839768027
99.7746013349707
99.796556403214
99.8214904608394
99.7599717432756
99.7995598100744
99.8223755094756
99.7270324951482
99.6696869574705
99.6803335538992
99.7025030800604
99.7887000044564
99.800290006092
99.8664148761007
99.8790892384345
99.7663650840027
99.7249970983679
99.76656571998
99.8040552729538
99.8399496389234
99.7622367245286
99.7351094654452
99.7813726889608
99.8010081111642
99.7456501125389
99.8052853518804
99.9767521198261
99.9778911235693
99.9102407006262
99.9708348154855
99.721271163502
99.5690778229155
99.6990353243432
99.9315614533282
100.150698057519
99.9151263399572
99.527634664409
99.6150842029563
99.7272459746924
99.7784012015845
99.6860959947965
99.6737173432923
99.7647182425437
99.8752476008467
100.031673752874
100.245888006996
100.063532260313
99.7525513031324
99.7642080693001
99.7081229858978
99.5675394953713
99.6110821797113
99.8621839275226
100.241103027794
100.18509260587
99.7649712738153
99.5427898175333
99.7215269425064
100.109438067506
100.084479417563
99.7409246711109
100.084318913886
100.371615961623
99.8288016089105
99.3904874665132
99.4421052531002
99.5742162740354
99.674165236615
99.7335476976659
99.7931521112301
99.7977738953232
99.7768926719366
99.8430623888015
100.147584568257
100.44976081213
100.718839888895
100.629984652123
100.189979677908
100.355647203406
100.007731310457
99.7801275598763
100.324703979061
99.6258938940715
98.9776901357662
99.0867561835354
99.3971115655221
99.6453987238294
99.7795834796613
100.123005198167
100.758678791863
100.446723186042
99.3819029145487
99.1751223801807
99.4400453064516
100.045024239265
101.017660296071
100.733334695708
99.5482705130147
99.4441086660449
99.597681727087
100.141077025018
100.877910856908
100.164276788849
99.0834884696007
99.1284028855079
99.422507495323
99.7202989848536
100.393894540675
100.761385414528
99.9700288377906
99.5124738712557
100.253158934704
101.220194669495
101.052243221433
99.3914446884243
98.7273482976607
99.4184302932895
100.52284812528
100.771315668826
99.7079236259599
99.4205494914128
100.087285892848
99.8038413223918
99.2241659176524
99.3990656501249
99.8723538059723
100.201685285986
100.033321617336
100.474107051286
101.925590442037
102.04303923385
100.806892177724
99.9361625232169
98.7296038811305
98.6535109486642
99.0735076595561
99.1283321385164
99.3325096793685
99.5243399892318
99.8683703198937
100.419661887003
100.425533961569
99.8052338324473
100.179076280108
100.633856317474
100.304160442498
100.585027029581
101.025125380467
99.7716767527016
99.3580865291636
100.029960264948
99.4261624168389
99.178102703157
100.140175995678
100.214129434057
99.3020066450108
99.2557914515781
99.732691768271
100.168577504519
100.317476090485
99.8419561901483
99.5950591893775
99.7544333592653
100.262929673066
101.210226222198
101.501772402296
100.230524254092
99.0442001207494
99.0300042244757
99.923684096947
101.063591957054
100.550518924759
98.9825064223295
98.8795286418154
99.2541445607884
99.4758966658635
99.5990421646319
99.7118057409701
99.9158952809781
100.666917517056
101.304865403951
100.350931498448
99.2484691145938
99.5191961547721
100.218186525553
101.009693229553
101.41643173368
100.324031600964
98.9654937623586
99.1538896320892
99.8364531941023
100.361313045599
99.9987641812959
99.2897894384197
99.3149312180193
99.59124982797
99.6827612034432
99.7297138210434
99.7573164252486
99.8616530296218
99.91554877018
99.9135191560398
99.9766878740418
100.165843378019
100.219997279005
99.9198614118999
99.6956099821507
99.7885805383734
100.050573486647
100.597375187055
100.591508539261
99.8160900014654
99.5239032025297
99.6736851112285
99.7628983769096
99.7931310067838
99.832824375511
99.9137047724088
100.06200511984
100.61997893291
100.917367903644
100.09987167374
99.4733396288058
99.8972825671527
100.473593976592
100.290185349801
99.5541722486756
99.5306518723193
99.6822072423381
99.8720371094206
100.43903436836
100.817515495888
100.087837622628
99.7236966421508
100.143347444576
99.9885102172025
99.5230948389619
99.9669703276225
101.048608193876
101.622972550135
100.578356609913
100.421283735187
101.121892865528
99.886390692943
98.8300981741868
99.4706130630788
100.943485764889
102.461321565873
100.882297427202
98.3442823881003
98.8180226869159
99.5958514898493
99.3278515834588
99.5600405323339
100.188929616696
100.679284487144
101.03379851933
101.067384031543
100.353769673973
99.410835112552
99.9880051776887
100.155822966167
98.9277757628975
98.8149867287567
99.2316259682979
99.7970895515841
100.358696282654
100.346351965814
99.857506641113
99.6461721038343
99.9787771637636
100.484775754124
99.8578369042547
99.340659040185
99.8308133316276
99.9613016199038
99.5241124215005
99.5488167281117
99.8699467034517
100.017928831559
100.077522047226
100.756248496743
101.325983381746
100.474898685475
99.9448675923921
100.118294323987
99.4446150417503
99.058245923278
99.3404374699909
99.5341268353886
99.5467324508967
99.7074435597302
100.217952379292
100.672940732154
100.08550413042
99.3926463567601
99.4597419545265
99.6138294270108
99.7305746066624
99.8009185155891
99.7712597525022
99.8169544318971
99.8425349703029
100.157055524476
100.766902132192
100.68090682707
100.187864561912
100.856225518945
100.630177379698
98.9841016954398
98.6868022466584
99.177892270693
99.4525211285655
99.4664347511836
99.4438000759854
99.5984420556256
99.919431981395
100.115362968634
99.7929262697445
99.7961258908573
100.68786741373
101.656247075202
101.023455813397
98.9185757439493
98.1487996246248
99.1608499825496
100.476168228759
100.587263228644
99.7452424735745
99.2187418244046
98.4538109109989
98.4460900873538
98.8539726425727
99.0804829825255
99.1937758255666
99.2628122596301
99.2808389600773
99.3832292453919
99.4683839785086
99.4515708317615
99.507276021481
100.043748314257
100.388050067544
99.5120595785785
98.7592066428714
98.9316927556352
99.4008580520255
100.231818568961
100.735692806365
100.436925724141
99.8403971141674
99.585024827677
99.3909613043781
98.3274031451367
97.809763183839
98.21461420286
98.6448608052434
98.9207791760669
98.8399932175448
98.7608914403781
98.7970328228575
98.9665104355677
99.0187980263525
98.8510817324764
98.8429058753686
99.1567355225816
99.3904344402378
99.0000586221562
98.5584498423212
98.9644185358066
99.8487708784712
100.548443833951
99.7902957331715
98.161723026073
97.6445390516124
97.9029412697591
97.9799172407059
98.1642032294181
98.3450120179837
98.5390720916075
98.8830156604384
99.243539433057
99.0558047300002
98.6142132593195
98.1030635632325
97.8095821018864
98.2244778472247
98.4929903701534
98.5121506740846
98.6060841911302
97.8367440830831
97.6301740086767
98.4927187771138
98.5610103545361
97.996302841115
97.9003130339426
97.4524574128859
97.2229105897044
97.4576323350103
97.6705382498347
97.8534203455801
97.9856735333232
97.8650944583526
97.6382634303678
97.5788477976526
97.4890743840104
97.5147731254345
97.7556921544657
97.636062701243
97.3615830532844
97.2538593225962
96.9852271349821
96.8131687781141
97.1043567689135
97.6688695174832
97.8721321010857
97.541597431885
97.182339468814
96.4058886855555
96.1634707744329
96.4382474796208
96.4971249869076
96.4774790153063
96.5222928566589
96.5788019812866
96.5102043606608
96.4445638756475
96.4423072087136
96.3194575660965
96.2884901796905
96.2889790333192
96.1596378857002
96.0599335290711
96.0781447300462
96.0967310180227
96.238745923695
96.6187126014153
96.7668405795613
96.4411571056842
95.9843590740216
95.3079624849978
95.1271480323312
95.3637414971204
95.3811138219755
95.4559890947288
95.5765294331362
95.4812287472977
95.3867675921329
95.4075728568201
95.3396802463179
95.2751171517363
95.4249816537049
95.5777213901112
95.6166253797578
95.5203009632939
95.2741071406958
95.134765528446
95.1954719529855
95.3587885109322
95.5337113070494
95.4788091978158
95.4074245388658
95.2936481928648
95.0487690349367
94.9445034732287
95.0163138866519
95.0581158691964
95.0960727967705
95.0956732394166
95.1164160389338
95.2965359585518
95.3398089160541
95.1482652008172
95.0493582424655
95.0416821192834
95.1170830044506
95.2154950944452
95.3077486915164
95.3562619617598
95.3833914293003
95.2695580592175
95.1630964856463
95.1236814862956
95.1286374073243
95.2563524531869
95.3151800595169
95.1448961586553
95.0352776529773
95.1357311362745
95.27287232049
95.2441000072186
95.1971174661173
95.1723984722497
95.1542651118593
95.2318985930024
95.3143585736894
95.3290649558871
95.3864247402802
95.43646048212
95.5072062357823
95.4509874623019
95.2179479096188
95.1221410546413
95.213578745268
95.3366084520056
95.4360196524694
95.5326742415112
95.4975839170952
95.3278322160805
95.1700142027226
95.1087109799085
95.1711017704112
95.2343442297395
95.3488155415508
95.4198310579179
95.357888968764
95.2819115983657
95.2924181708824
95.3312872519679
95.4020432525501
95.3998536816665
95.3954394750477
95.4474899797852
95.4645494027743
95.3663064120922
95.3527244797639
95.3821339996729
95.3817337643996
95.425844541131
95.4968145532665
95.4025323537768
95.3260185742123
95.326729798136
95.3942783029588
95.4526222023196
95.4581054383524
95.4547170701936
95.4821920503482
95.4259132653597
95.4283485956549
95.470147361368
95.4993124735985
95.4547776028525
95.4398750243574
95.5280759374213
95.5961984544088
95.5949230923742
95.5963679395398
95.6396508738821
95.7268518793121
95.7259624125406
95.6814915070557
95.6636623305939
95.7455996118399
95.7944668130631
95.7493065164911
95.7502033139663
95.7857602650272
95.7255998939893
95.7400087105462
95.8597204249326
95.9137700394152
95.8990529969035
95.8679636671463
95.8314213842798
95.9476380896213
96.1525828409632
96.1352460740331
95.9599764773462
95.9435038997761
96.0807989348837
96.2113725141632
96.22233719405
96.1821634704975
96.154241392262
96.1630422823327
96.2034926020227
96.2442650280011
96.2674823109071
96.2866464892383
96.3032622739676
96.3846569999966
96.4170803519209
96.4129530054659
96.4553028239225
96.4411425542945
96.4490013519255
96.6058984116017
96.6713780927648
96.6294469881166
96.6356230907424
96.679817016175
96.7166726936953
96.7691666610238
96.8013987611816
96.8650159628942
96.8527724091299
96.8221326048954
96.8601587440646
96.8884332444984
96.8741663278229
96.9241979891335
96.9264525565929
96.9171837840893
96.9665945588484
97.0554220861622
97.0754636697527
97.0733195226962
97.0873945188105
97.1760227290347
97.2188361426798
97.2067754902616
97.2396204099485
97.2904733118291
97.2533925488062
97.2079191369941
97.2179217469156
97.3291309276293
97.4587222704522
97.5393321931812
97.548282585658
97.5240897195552
97.5048793138207
97.5289999082401
97.5997183704469
97.6066601976865
97.5250970504273
97.6040438966239
97.7756782270799
97.8457620926276
97.8930801429932
97.8964798569476
97.9254817099492
97.9504598260629
97.9010999394149
97.8387779280515
97.8238129757737
97.7928859033041
97.7780153098494
97.8632927363779
97.8835564172568
97.8725568644584
97.8844200535294
97.9285861050111
97.9454161555836
97.9226265051386
97.901961467306
97.9198393780676
97.8410351203279
97.7421360112503
97.7495994925626
97.8740664208233
97.9724766010377
98.055285905097
98.20531277734
98.3584349992548
98.3309803925384
98.2503608693876
98.2038122473298
98.1712984778716
98.1427932991829
98.1711226775655
98.2130958034983
98.2080306632682
98.1822661129081
98.1379729131987
98.0447767381844
97.9693932054683
97.8634456319437
97.6847225006778
97.6346102124198
97.7851793080246
97.9782365791397
98.0397839357422
98.0393448674701
97.9989922878081
97.9090003122401
97.7760450940657
97.6658725482563
97.7101710206076
97.8004483710673
97.8192709794875
97.677140212804
97.6098573364732
97.7957162034041
97.9838440280466
98.0748951758036
98.1669189951283
98.1604006910566
98.0577723758343
97.9562313661512
97.9205679983654
97.8711807631909
97.8433070864645
97.7879522355619
97.6820151236099
97.5890838210317
97.5914860735388
97.7208989163528
97.878573008259
97.9654546196519
98.0686975444487
98.135352598313
98.09806680065
98.0394706982682
98.0378926864831
98.0295327462626
98.0237545143072
97.9970674144389
97.9798627056311
97.9802522621264
97.9505366967396
97.8872940600473
97.8202433609093
97.7588490622651
97.7723610351213
97.8262481215307
97.8835966796929
98.0014646173666
98.1712898143505
98.373527031309
98.6344246748807
98.8054561175226
98.8332841995686
98.7904033562275
98.7620843720978
98.6724987925056
98.5336328724082
98.4059632265313
98.3768578622704
98.432398395899
98.5364851822492
98.621137967933
98.6381258067176
98.7047089922159
98.8131476005166
98.916559374471
98.9357709451448
98.8996257287018
98.8772281723262
98.8137653457471
98.7744308623451
98.7835073465733
98.7611100350932
98.709418822514
98.7162401902073
98.7027094996146
98.6719869640995
98.6490593373613
98.6549428464195
98.6087586393285
98.5317013507226
98.5997127989345
98.6909200451469
98.61701715694
98.554005254297
98.611809796649
98.7616636067734
98.9297234526877
99.0367133557118
99.0856231452904
99.1083730735359
99.0606116449238
99.0518222294104
99.0552336877104
98.9840188948701
98.9519318589515
98.9741809152821
98.9538832172425
98.9133880113251
98.9124790255433
98.8828723092247
98.8366201620463
98.9177868490474
99.0222473678682
99.0013544373576
98.9414646050018
98.9276101682673
98.9614898087184
99.0058570742806
98.9683543824143
98.8967618777774
98.9225267215415
99.0684142746438
99.103861553986
99.0535245128622
99.080506819773
99.0935458001717
99.0877794857835
99.0991096587414
99.0999373959251
99.0785513912749
99.0805927097283
99.0984388022365
99.0860741841337
99.0823199430183
99.095553310081
99.1068272948941
99.1445032501084
99.1819597260559
99.1969408420723
99.2027562509128
99.188609241651
99.1925616612583
99.2234364081249
99.2305982915472
99.2097757384481
99.1814758997788
99.1595114793077
99.1834435201992
99.1934516379776
99.1855663395981
99.1475757977814
99.1697223361948
99.2015620135386
99.2018336704272
99.2024697952625
99.2017388514713
99.1805232918675
99.2025558072052
99.2700810217794
99.283648799605
99.2200784517636
99.1761274980987
99.1630486019676
99.1709615117451
99.2262329737999
99.2438066488108
99.2116021049549
99.1973340753575
99.2228829374379
99.2741576424821
99.2753190544985
99.244117493098
99.2833486163882
99.2970856232874
99.252529350831
99.2525481813634
99.2558338196092
99.2242268268374
99.1952217334887
99.2018660576936
99.238045595117
99.2375399124495
99.1845136431358
99.160362053062
99.1691125841164
99.1946017435748
99.195844670795
99.145866772179
99.130508819637
99.1528736035636
99.1177968616548
99.0996855948793
99.1331831884955
99.1663630768952
99.1434625382414
99.105988777702
99.1273171070169
99.1407004815127
99.1639934733303
99.1819642515631
99.1651317987546
99.1241849469941
99.1117021895652
99.1133735751228
99.1090462053867
99.0710909967608
99.0666980614926
99.1204462427716
99.1462644008659
99.138393107327
99.1144399414885
99.0993426227714
99.0791918766739
99.0877757262894
99.1401338798492
99.1611036767549
99.124838012169
99.0761042991336
99.0814469510122
99.0582088126944
99.0348497822229
99.0963062711264
99.1741535186249
99.2013883646408
99.1807050815362
99.1826058468632
99.197902955331
99.1946809294426
99.1944873589614
99.1793012702784
99.1955329110961
99.2236510646768
99.2093761390262
99.1570474582835
99.1832982921111
99.2228987092787
99.2205754112667
99.1837317368201
99.1817483292051
99.2048279756875
99.2109475207007
99.2021463934178
99.2145630259749
99.1670808525417
99.1335842326285
99.1889885079434
99.2019672336411
99.151820359621
99.1604430984323
99.2269782856086
99.2167052863517
99.1554180699833
99.1341515045555
99.1217173927648
99.0769745711273
99.0228970926142
99.0399920488852
99.0921379454067
99.110612712691
99.100020171007
99.107612981342
99.1104326606027
99.0931895294913
99.0884337126856
99.1106740715327
99.0820274033714
99.0550160362979
99.0599605362386
99.0558711066981
99.0385650388752
99.038261815089
99.0294185164113
98.9972684041927
98.9618966844754
98.9726057570442
98.9656602324058
98.9553592070016
98.9567858867832
98.9462198116235
98.8989537472647
98.8487261317942
98.8300437960667
98.8519990951864
98.8155524890972
98.7721652089398
98.7380655354369
98.7010575370493
98.6890093466159
98.6851249739202
98.6673249065242
98.6150786817746
98.6027958297645
98.6408105114882
98.5912851334955
98.5261378549873
98.4981633923933
98.4937333486845
98.457082274843
98.4375134298595
98.455708806772
98.4216168492455
98.3705606356304
98.3590712565743
98.3680977744943
98.3734077888192
98.3424441563627
98.2995756152515
98.2771755157442
98.2806111958202
98.2553496938407
98.2586550938193
98.2489002623764
98.2651287864854
98.2943613181952
98.2978055150351
98.3033636378348
98.3105428539821
98.3091549078199
98.2900289822336
98.2697948714244
98.3081728091843
98.3386264103885
98.3452467008773
98.3914632299686
98.4541387298564
98.446180840297
98.4084736887145
98.4153228982459
98.4178493841298
98.3896273165495
98.4245669798472
98.5066865245281
98.5582400544847
98.5267832841293
98.4776077929123
98.4568743186617
98.4690006768987
98.5061417660383
98.5105658551864
98.4933130781821
98.5093772964933
98.5277082556108
98.5636619669397
98.5810507321969
98.5524382595777
98.5247038073593
98.4939958429572
98.4798132027923
98.5071892819537
98.4966009360444
98.4901345820249
98.4962535635423
98.4542939285658
98.4058925782925
98.3929524561363
98.3863213445825
98.3895755931268
98.3635194777983
98.288671068564
98.2252177927278
98.2060199396717
98.1679362308967
98.0710557454153
97.9600119000044
97.9222332068445
97.9102571658406
97.849215702334
97.8016768096745
97.7767008564952
97.7045587113823
97.6633107050528
97.6288777674463
97.5807517904202
97.5656945779046
97.5942824795832
97.5797724090454
97.5116383253534
97.4189850442627
97.343108369213
97.2489366622261
97.1413348023532
97.0548217966122
96.9787537648705
96.8810393552013
96.7960844425174
96.7285312196955
96.6234489426606
96.4679862241505
96.4178469721761
96.3989891155293
96.3622733799717
96.2840110699241
96.1565496670796
96.100468852902
96.1182215168946
96.1286916800172
96.1030342258663
96.0654675265261
96.0494003286829
96.0065369277869
95.9485515658305
95.9105322725732
95.8572416686738
95.7737583621601
95.7156591406332
95.6798177238647
95.662942849634
95.650265632071
95.6159441822775
95.547170177511
95.4571186598109
95.3070220307996
95.191813915897
95.1247406955847
94.9942611947522
94.8244761730124
94.6591946286422
94.4637919851066
94.2354468318759
94.0366689096008
93.8184256796122
93.5620054848018
93.3137304916646
93.0593299242437
92.7906025104585
92.4989814774623
92.2020922043611
91.9163019781843
91.6534095172189
91.3652814065118
91.0591825965272
90.7480393663954
90.4748681075681
90.2342073384307
89.9858288039101
89.7322638650694
89.5146742384397
89.3132743159338
89.1100850758899
88.8671926339115
88.639844427552
88.4363770559912
88.2942115982587
88.1508205636048
87.9732390562472
87.7923353970792
87.6315477845543
87.4557301068011
87.2288496527547
87.0061327341497
86.8182819350433
86.5893750063943
86.3441644897532
86.0971763945149
85.857928178323
85.611537756402
85.3769329829699
85.1787771960913
85.0090825051282
84.8158572399023
84.669069449385
84.5580131895256
84.4424768873918
84.3384765500382
84.2575482065562
84.2138386705097
84.2116672891961
84.2194724886283
84.2521348178976
84.2828957890773
84.3486796074922
84.4682071222961
84.6193580381876
84.784951479181
84.9853595115156
85.2122881441123
85.4169883037453
85.6380661503627
85.9237258222129
86.2068118015839
86.4899226110125
86.7533340343213
86.9863525064607
87.2198844922358
87.4767872221594
87.6751304249991
87.8375377490879
87.9998966138388
88.1826384070494
88.3533267356241
88.4931276730332
88.6232774761596
88.7524637410686
88.8513305546498
88.9314038826309
88.9754699177859
89.0257409468376
89.1127227478233
89.2018586335711
89.2435901569597
89.2525355366449
89.2672619280894
89.2816338450808
89.2662903692027
89.2555807046878
89.2454771394966
89.226339122651
89.1975318918853
89.1784175668979
89.1662142417741
89.136581390843
89.0742157116444
89.0113905055689
88.9675048618655
88.9349087106254
88.8535218334853
88.7784982673034
88.713602285144
88.6438400085308
88.5439085834007
88.4384254257812
88.3892098276392
88.3738621310318
88.3190700115399
88.2596896522514
88.1666805307994
88.0632048486083
87.9441706036183
87.8179984750893
87.7035994218347
87.5853680353006
87.4660767696533
87.3598999072897
87.210181393445
87.0585977663314
86.9558788075818
86.900716133286
86.8202576418554
86.7587509734057
86.7504867128909
86.7483583445506
86.7526977016213
86.7863257026359
86.8431617857226
86.9233058964938
87.023451608605
87.1535907090721
87.2713907230543
87.417279283256
87.5822499032064
87.7225704308361
87.8651489747411
88.0371930307044
88.203498435692
88.3654357484964
88.5115079434928
88.683049566021
88.8848949853328
89.1230472408206
89.377418130487
89.638382018043
89.8958584218464
90.1586523316201
90.4508144006782
90.7493567671605
90.9921563978047
91.2455073693945
91.5428857068097
91.8282142618542
92.0521956831881
92.2743624390375
92.480858888339
92.6873374261241
92.8876582438404
93.0536771399874
93.2140467400044
93.4010675206149
93.5557275909578
93.6825272400165
93.7989233672982
93.8947330208594
93.9844620938844
94.0804106006237
94.1514694756291
94.2205501518307
94.2796671661194
94.3262927519086
94.3499225692526
94.3663191936732
94.3923954593028
94.4775645857872
94.5429290997128
94.5324332818697
94.5133454403377
94.5377919890663
94.5489347766626
94.5781627007248
94.6238960058021
94.6771912623228
94.7248845819734
94.7594551100268
94.820013991886
94.962317924809
95.1384926529506
95.2640791727245
95.3734935706036
95.5241079788802
95.6274063636693
95.6903060889891
95.7680452289485
95.8529534345647
95.9256661927196
96.0521239863316
96.1835538732859
96.2477070711906
96.250026707518
96.2620192698664
96.273347922968
96.2605100907403
96.2172113975226
96.165721497019
96.1191214386825
96.0834481690543
96.0618465047248
96.0289999345198
95.945714241817
95.8856944124042
95.9388191168615
96.0529806428687
96.1245092277921
96.2025612910139
96.2410164645177
96.2487746250194
96.2700831697709
96.3049912205021
96.3403485264636
96.371219697836
96.4014174803662
96.4437937977624
96.4792167215347
96.519549263711
96.5539570759153
96.5828701565973
96.6155063638275
96.6763146273035
96.7330388259809
96.7862739433787
96.8520161941584
96.9469519796565
97.0328771811131
97.120216310766
97.1989531357684
97.266422232138
97.3513732061808
97.4649046537043
97.5560627318796
97.6629134203689
97.8270824761611
97.9709727660608
98.0672179058862
98.1542842372122
98.2329105201975
98.3137627984397
98.3908716326915
98.4641656929527
98.5225456628601
98.5865509072675
98.6417122288158
98.7177832534503
98.7921049426379
98.8360541929746
98.8640559186974
98.9087109932665
98.9502891339264
98.9795038819638
98.9949649479526
99.0184759300189
99.0221891990332
99.0375917003682
99.0858133014126
99.1507281688953
99.2000923436831
99.2314914947967
99.240242171003
99.2770036976603
99.3208919385563
99.3594918481063
99.3595013300643
99.3610883006041
99.3657371738043
99.3694191356181
99.3920409268446
99.4291180134658
99.4471864357372
99.4455138111492
99.4380342047487
99.4510976966667
99.4643759442276
99.4755871824317
99.4679834568577
99.4796552408676
99.5102891025372
99.5199526123833
99.4945349601196
99.4901428326122
99.4902720231354
99.5036330180199
99.5020613727936
99.4822937735204
99.4841993942998
99.5185061018322
99.5219086628779
99.5001468219076
99.488227139143
99.4870119831847
99.4907438331296
99.4975841981017
99.4703383375617
99.4503869869041
99.4457252077139
99.4653287923302
99.4827495846081
99.4983359258107
99.502608304742
99.5130352020905
99.5109426335543
99.5101851071395
99.511210508203
99.5406681844721
99.5695326949304
99.5581424061225
99.5507741160174
99.5803395841006
99.5990692596208
99.5968372067528
99.5992096692265
99.6164669357613
99.6136261695766
99.6091827793753
99.6079126505136
99.6336105533939
99.6449596067986
99.6452946474082
99.6331209672976
99.6203781126971
99.6167468585992
99.6198389531153
99.636530332953
99.6546680502474
99.6418155871648
99.6377685033586
99.6541021783291
99.6682087812407
99.6761961509529
99.7019640805943
99.7154790662689
99.718011750394
99.7079491536618
99.7314048192499
99.7519600338722
99.758441269835
99.7807968342515
99.8078107123239
99.7830335247828
99.7740890567086
99.8032936215059
99.8250059576194
99.8376090294403
99.8474254416229
99.8469140586845
99.8762495398085
99.8918093063278
99.8928064371183
99.8981966996859
99.9233158169154
99.9404054657178
99.9690739616886
99.9895959881814
100.002500368724
100.002842416062
99.9893226649062
99.9670572471518
99.9878775427852
99.9914076649615
99.9653009331142
99.9711283211945
100.010935153815
100.018247864638
100.011807391598
100.023909698216
100.053199380557
100.043441949776
100.021154374553
100.015094580241
100.02410638282
100.004934691474
99.9959229400619
100.02161396776
100.074116472845
100.074884775931
100.060284414509
100.017959242573
100.00118076678
100.044129870694
100.067450511939
100.027395301889
100.019869018434
100.020534117158
99.9929117730462
99.9801894587832
100.019803965206
100.039842156204
100.040587396142
100.023838202275
100.013753306759
99.984937937555
99.9765691037307
99.9879074026185
99.9916138849732
99.9496509589992
99.9222025068618
99.9610394300053
100.0334698932
100.031238373962
100.012091272109
100.011006567543
100.015347660316
100.025253124093
100.042168314336
100.021215184728
100.027487967592
100.025448279034
100.006069825144
100.003465301861
100.041261345391
100.028213674794
100.025612478095
100.055916238664
100.07808277018
100.055676728028
100.029654223063
100.014940028444
100.037118509188
100.043715614953
100.025275678215
100.000283833864
100.020563719661
100.028357148862
100.026692432399
100.020306797155
100.051595414019
100.084596682376
100.097000432577
100.059640753742
100.033700104126
100.027077371484
100.052640447176
100.06728697145
100.071289656307
100.040378911318
100.030669401096
100.038365264303
100.058985176644
100.060278933731
100.039072839831
100.027981270789
100.075144360256
100.073930928927
100.050647370474
100.05850077974
100.092426415918
100.048851772972
100.01367618463
100.019675390543
100.037024133526
100.017200226177
100.015701687316
100.051510388475
100.087852258467
100.051879211178
100.014891700036
99.9776703462316
99.9484693857373
99.9313397701398
99.9439919136912
99.9470245366699
99.9831453491674
99.9841266324965
99.9948694977242
99.9890886819933
99.9814029337189
99.9760020010843
99.9655143457592
99.9442788913733
99.9422647662672
99.9334445446693
99.9458286872445
99.9460709540282
99.9542554231841
99.9376914796475
99.9530933333427
99.9505281745576
99.9172453332398
99.9036108732416
99.9300538122
99.8981305762864
99.8728505810726
99.8444447114435
99.8379025221445
99.8345838336221
99.8127054684164
99.74897107004
99.7186609076192
99.7126538273444
99.7098720554345
99.6812239060218
99.6419928488277
99.5577747069731
99.4948269887882
99.4938099536213
99.5634555288142
99.5737629973837
99.5590600614867
99.548409995823
99.5589423304197
99.5585191405799
99.5750235971827
99.5667077068244
99.5946701991933
99.6031098433015
99.6069808832127
99.6245534410916
99.6575769786049
99.6675563917786
99.7048976282838
99.7274083336432
99.7404925595695
99.7531249192236
99.7708161551989
99.7531133813377
99.7791899517402
99.8066667461325
99.8075571161944
99.783449038718
99.8070492855671
99.8280724310468
99.8519131487168
99.8465274222545
99.8615310914074
99.8774094410253
99.9042591316162
99.9187133535118
99.9510592766626
99.9160908890456
99.8805368214167
99.9009749901013
99.9506593065885
99.9624879945095
99.9665389463762
99.9785802100502
100.004038669248
100.03524393359
100.103425307563
100.108934061919
100.093140803655
100.06122520979
100.06237964471
100.053707606417
100.074651684534
100.103046599081
100.145829151243
100.14971998533
100.15169714899
100.160333718325
100.132849799272
100.093374896258
100.149671003359
100.169973488542
100.186730126162
100.202132820468
100.19839216386
100.178331588785
100.203150425925
100.199219144124
100.212506752222
100.197202882074
100.193091370305
100.208225693704
100.23143059902
100.21510562862
100.201984567955
100.202620612604
100.240718411475
100.246069869704
100.241293334269
100.226415074884
100.262378467547
100.253826405356
100.226377687917
100.23220387164
100.2479308544
100.217125176308
100.216153005171
100.205211075758
100.220345274517
100.218206136049
100.213743422505
100.200934848682
100.229024910311
100.220995102204
100.190525832914
100.203810474258
100.239628968923
100.195964549991
100.191635815344
100.193709325783
100.173516106258
100.135580551732
100.179027129907
100.199887524426
100.186144765944
100.169707999126
100.195763444617
100.163962158976
100.15147019518
100.16421825941
100.165763233682
100.15359581499
100.164164583345
100.152685101003
100.169241408764
100.145118046161
100.145117258539
100.158537513431
100.142784522142
100.102252687758
100.117512672164
100.120248082078
100.122773330624
100.096725294624
100.111175113474
100.109242430049
100.107577462635
100.078231388146
100.064532738102
100.062006799727
100.1212943632
100.130137861396
100.108013318444
100.090353281728
100.121490368862
100.150741242286
100.195359534064
100.19263187671
100.212081108731
100.200292953608
100.220711850587
100.233552591907
100.270828464278
100.26016131181
100.272296185432
100.269780038742
100.243754286216
100.161621806226
100.173739778705
100.222579612232
100.244975112907
100.152688951726
100.092885551704
100.126691753207
100.212012809723
100.10837818011
100.04712269637
100.05405855397
100.004291192222
99.8825116938738
99.9116338311465
99.8751696358663
99.840702572326
99.7311732487329
99.6994023592683
99.6511419238597
99.5625082902379
99.4687419226714
99.4407309826877
99.560066910425
99.8528684614854
99.9359116000296
99.9587908562016
99.9421556199969
99.9393724768549
99.8368701278038
99.8376155506313
99.79835918571
99.7781849029521
99.668221733641
99.6544077580111
99.6015266640356
99.6137686829422
99.505304201356
99.5440889093962
99.533632221404
99.5691495126077
99.5013401849847
99.5030990974986
99.413693974116
99.4215007373789
99.3580941750449
99.3866857833458
99.3593168288479
99.3972791883481
99.3822377943697
99.4737364296706
99.5043655369135
99.4510855200919
99.4685577918192
99.4779084318274
99.5363612390164
99.4200927373887
99.5111883373729
99.4661491410747
99.5818984844127
99.5241313269
99.6713578889655
99.563061412899
99.6433255817208
99.6121346593052
99.6797751510959
99.6919376852341
99.7330457749146
99.8022502096296
99.7879993805352
99.7908756845129
99.7636561072943
99.7955218821788
99.8208570243609
99.851385265058
99.94603295865
99.9470707129172
99.9687818602978
99.9568301779973
99.9815723610078
99.9733945012638
100.035025757919
100.095753206547
100.102592325126
100.08625855873
100.119172112755
100.141453875798
100.158682273817
100.205129591658
100.280282870392
100.238472316583
100.185198759155
100.18469906311
100.228740126464
100.261451339179
100.281836008875
100.243156337669
100.205534144384
100.177204293342
100.129992400421
100.0501439522
100.040868594632
100.052962704551
100.042378178416
99.984506437307
99.9574605252285
99.9899230807494
100.070307256936
100.086413773335
100.097921783478
100.1190203157
100.12765376393
100.103874816154
100.136511146396
100.115129304961
100.115160103893
100.200978180626
100.268358518439
100.254081039196
100.271537230974
100.303870051487
100.338521536241
100.353638891776
100.344996696593
100.344929778096
100.32455825885
100.278435438099
100.302025149513
100.284880761588
100.272895955994
100.306900418794
100.28520648465
100.315468005412
100.366637686756
100.339765249964
100.371528712809
100.389025032994
100.386786467591
100.413986399768
100.427703276878
100.467403737272
100.503483098883
100.505873637519
100.521578078372
100.560168641655
100.615836090984
100.640104910482
100.657092737128
100.656467506501
100.566695335814
100.597368109859
100.660134990755
100.645946927994
100.602009984438
100.601079536065
100.651146920806
100.690725252514
100.691314577993
100.725099777833
100.700552713482
100.605313787125
100.610562914459
100.686289925416
100.769648722463
100.799652267175
100.747097720463
100.677983519049
100.658141027678
100.737596288643
100.779862358919
100.767448556883
100.661732295225
100.634444530671
100.658460107907
100.607657068294
100.558228436296
100.62820697045
100.578573547241
100.456235422951
100.481930104875
100.611223110183
100.562360412714
100.528372679926
100.563595023226
100.577735597212
100.552999772682
100.569036738141
100.514073878089
100.448314837475
100.512933209825
100.46023287677
100.325086298225
100.361490138703
100.384416809232
100.356681567439
100.289380289143
100.189316595927
100.105766787713
100.068420273548
99.9758892500228
99.9688316489209
99.965285636642
99.9502646771448
99.8953487382022
99.764046543401
99.6567417114644
99.7126816405633
99.7375916274746
99.7801812342775
99.8079380738575
99.595213083254
99.4100583629611
99.4090990998402
99.4809323530164
99.5861653955181
99.6326079003188
99.7195336407166
99.7369383165424
99.771024311295
99.8147047079566
99.9299078230631
99.8947563033095
99.8936948335048
100.128251841634
100.221249525764
100.06755433025
99.9311430480929
99.7059774475919
99.5309762832172
99.2755897808999
99.1650908269291
99.1358872073258
99.1987153307936
99.2966437835452
99.3282069559969
99.2957231917938
99.3122627093885
99.3822053932552
99.4112639590071
99.4803403857195
99.5189395552645
99.4762344029429
99.4657826666801
99.4711171960035
99.6046022609871
99.6537362249449
99.6296445509419
99.5916355385445
99.6647729326845
99.717017044936
99.741718644047
99.6939353177699
99.5804304111232
99.5528167077853
99.5939185620222
99.4792335213775
99.4244622695057
99.4397977541453
99.4573281868113
99.5117610900003
99.5144270101148
99.4514835139975
99.4532885935064
99.4965712027707
99.4479353347749
99.3935528064312
99.4130593614309
99.35880255959
99.3205027813135
99.4019471780289
99.489943723084
99.4403110115113
99.4303932175694
99.3997790148636
99.3693730027803
99.368634477664
99.4001286467393
99.4450705705927
99.5183166018696
99.5200114049497
99.5202871332456
99.5559778640982
99.6233984268821
99.6606075529877
99.6316019028566
99.6035615184923
99.6633854232371
99.7507726383476
99.7820108660607
99.7698604141967
99.745005337219
99.7588578723768
99.7971000347738
99.7984027509531
99.8579977513285
99.8564031850803
99.8036886858987
99.7741491474921
99.7477237909484
99.8178758821123
99.8972158206738
99.854759397224
99.8261568650653
99.8230559035318
99.8566989265416
99.8913502635704
99.9177467149864
99.8828324495801
99.9042901024734
99.9266771852355
99.9420386833905
99.9847974090828
100.043856302059
100.031364068483
100.015710848742
99.9932386614304
100.015688398633
99.9893351987848
100.014878241956
100.059151123155
100.116362524367
100.102280791971
100.035528812346
99.9855745408939
99.9844019923642
99.9523229046051
99.9542815336753
99.9676124780684
99.9735143835601
99.9210586293481
99.907932213871
99.906469358744
99.9054381839309
99.9014412783411
99.9580978191661
99.9855192813162
99.9602596002799
99.8694912827336
99.9260874598705
100.067354544675
100.110696453116
100.058569221873
100.036730888214
100.095392039709
100.264904211322
100.220250607519
100.063034373531
100.019696840434
100.072921572391
100.138134823671
100.13436450985
99.9645190274137
99.9967820635732
100.153346226235
100.234626612466
100.256929197138
100.340113575825
100.422656134069
100.496671146
100.409224151754
100.364665618475
100.461938197998
100.497988057599
100.348914653475
100.265072562931
100.28504137672
100.415273099806
100.434686029104
100.436958573316
100.410449905176
100.382927154036
100.426679903371
100.549196755936
100.45907681199
100.405402346529
100.326603537547
100.323047017263
100.421841905431
100.516176820389
100.448338562731
100.3147370216
100.424711922932
100.453889975736
100.20535705809
100.161897351988
100.205268553738
100.219462516171
100.139162556642
100.266103953683
100.320531714561
100.143486876136
100.066835251523
100.071753787467
99.9934250691716
100.068351086226
100.172925380562
100.259267070533
100.144812894779
100.083822263736
100.087591116654
100.169222095785
100.158918931917
100.250847650913
100.241268870298
100.199639488462
100.342514072044
100.447819180417
100.239698268903
100.337044584922
100.503461955144
100.463445187681
100.30972393811
100.211070574032
100.170719022456
100.295030940711
100.301537518924
100.278913863739
100.257899511408
100.26911610294
100.38510443464
100.667396487284
100.693047440137
100.645864833207
100.520165186232
100.420234254615
100.503281723354
100.525792811044
100.457717141808
100.340754853345
100.202848806062
100.220305372158
100.28886490705
100.314362398358
100.107716186733
99.8591283018498
99.7497817860507
99.8015205287466
99.8707780159353
99.8516349531032
99.7984111003495
99.8052106275578
99.823090612236
99.7662363994937
99.5644315674139
99.5133677521311
99.5671809303232
99.5793036342993
99.5326790010356
99.5720015355031
99.6116303758076
99.6489410114617
99.6715315244031
99.6396980094687
99.6899653778381
99.7597908908141
99.7608776282357
99.7663952611373
99.739540766287
99.9766107422819
100.178102274155
99.8731975587371
99.6672201413044
99.7455525145282
99.7851769018409
99.8748120174375
99.876685246885
99.8186057580229
99.8279274723478
99.9424629724339
99.9340438551252
99.8835718099355
99.8325165324736
99.8455473442609
99.8140095085064
99.8646466012134
99.9106585646373
99.9250180493286
99.937277558121
99.9278247833676
99.9797441508869
100.123928323577
99.8725727683947
99.6574960140416
99.7393350189267
100.016886724445
100.348335654648
100.155895055889
99.674190651379
99.7560528963645
99.8596486673813
99.8799293642691
99.8573008001524
99.8745960053701
99.9455947966319
100.016903684795
99.8580578348658
99.8262078473134
99.8183766804939
99.8094012675223
99.8773117920424
99.9076244159559
99.8454583872023
99.8579900299575
99.9052348373491
99.8636617238375
99.8163390526906
99.858068209182
99.8273294875734
99.8566133499411
99.9757611309103
99.9852219651787
99.8311311823486
99.8221340770649
99.7906774890775
99.8070735179628
100.03969802088
100.182087768079
99.7315404987747
99.5616242064883
99.7578198311353
99.7984222009321
99.7869318498087
99.7672502764673
99.7263866912328
99.7789286996404
99.7802500255403
99.7815423287079
99.795644803357
99.7792912185382
99.753236337154
99.7802028087086
99.8268028144153
99.8466209665176
99.7992013317571
99.8115323306439
99.8298106975823
99.9465874274652
100.225054714822
100.281859515255
99.8057273355862
99.5417749761175
99.4852429515495
99.4790936268203
99.5558932453369
99.6829675636279
99.7366693237684
99.78117996518
99.7493135029726
99.7277081377779
99.7788943363941
99.7939889798936
99.7424321492287
99.725439139256
99.7169453770135
99.6879352931289
99.6753658665676
99.7026066576161
99.686144684073
99.6862780156247
99.7467393742761
99.8657524733725
99.8241037818965
99.5962366536422
99.7779885026996
100.407743086935
100.220137015979
99.167646045231
99.1516840049144
99.4019336760506
99.44711756025
99.5474017380844
99.6385719529487
99.7497077853073
99.6268071854794
99.5344003412055
99.5748941012978
99.6492121526821
99.5923537020941
99.6294742012724
100.084874286103
100.354904737792
99.6609971220031
99.1025308061528
99.2728297339916
99.7862742750803
100.057453908946
99.5194789849933
99.2197727370475
99.449959526599
99.5008295159933
99.5223955751736
99.5181971612118
99.5625102291445
99.6423218947643
99.5511165801877
99.3806453453035
99.4031391334655
99.4441983847936
99.5009939989218
99.5828887143501
99.7114595902156
99.6035173967693
99.2876802280935
99.2849774159902
99.4126423701611
99.3152002063114
99.3517445055793
99.3867738082195
99.4139851525324
99.6014584454815
99.6457279891452
99.4553336166958
99.5205205402685
99.3668110345509
98.9604646338927
99.123229213712
99.4517654704948
99.2813790720896
99.0864952425765
99.5652262328248
99.9915597004871
99.4020651949853
98.9097893108073
98.7211804095589
98.7598602420223
98.9754562567368
99.02849558549
99.2009042956025
99.4430396758333
99.1984664430955
98.8417419328876
98.9486642371997
99.2586714599365
99.3358830052862
98.9827489034285
98.7871096547265
98.8108087887495
98.925533028925
99.1213831828399
98.9075139194849
98.925868518111
99.5481538277815
99.5657747882958
98.5957803262249
97.9321291668241
98.2252078616963
98.8821744644047
98.4940327600693
97.8966359151058
98.0572535175729
98.1947764645913
98.1822502096523
98.4658767196625
98.6960985581144
97.9337951075652
97.3345817097422
97.5258634101603
97.6677438065977
97.8330551819979
97.5059958221275
96.8905740655081
96.8284816914033
96.8493157117449
96.9934950197046
97.4275095785434
96.9377407322149
96.2110056807045
96.4114433737731
96.2726548176796
95.8762312282433
95.8066330153918
95.8704184367223
96.2023358601525
96.2604324527125
95.8025908805261
95.7312371979476
96.3741893404689
96.374864754713
95.4409057195336
95.220570432837
95.3594440223583
95.5664307615283
96.2658886425828
96.2997998715957
94.5154281509583
93.2038687869155
93.4205946845827
93.6669104505838
93.061303295634
92.3856733575664
92.3360969155506
92.2658452330609
92.1491030821914
92.1572944598622
92.2511110462814
92.1033080330904
92.0313734293759
92.1037428920005
92.3739983592636
92.8876389058618
93.2434823677585
92.4017392864323
91.5645267211704
91.9485854656916
91.9927375222434
91.2518538170512
91.0425603800373
91.0900913582134
91.1501272429927
90.8212954180976
90.293059119722
90.0810138470993
90.144719529309
89.6359158727886
88.8950927480765
88.2616880610652
87.2941599014178
86.6610762505173
86.9969474201737
87.5021329920973
85.6619731593348
82.4662942417791
81.7040998620333
81.5180126533535
81.2230638603341
78.1897385606235
74.9627016992026
73.2001690707175
71.3286310908814
69.3317163218769
67.4324080296094
65.1534480475077
62.7932404903632
60.0498347305846
57.3442151173622
55.608746435011
54.7468936083339
52.97427302522
48.6996167966866
44.4830633037417
41.9753962578423
39.8016527899433
37.1767736384335
34.6961910502325
32.5511099116199
30.8195768302786
29.6523746194001
27.5305730468832
24.7789107150943
22.8863404430634
21.4319381518593
19.8629018459678
18.5899520145257
17.6133913067576
16.1060639257983
14.7065965332981
13.7055021039793
12.8593178671376
12.1774761246055
11.7057306997321
11.3111441575472
10.7244057911036
10.2345699598435
9.87276688870925
9.59353031006034
9.37850470428078
9.26241594963618
9.20449917995816
9.18067031014132
9.09477269241126
8.90404726170521
9.29172759060402
11.0081937289295
12.2647479767385
13.1917178726213
13.7955413052795
14.5514473326341
15.6230667119657
17.3971931706525
20.8131202495858
23.5912421818301
25.4819422576558
27.1883953147816
28.903903291102
30.6130201213221
32.3542987423843
33.5277069804087
34.1931342688849
34.7446654735021
33.6375262369633
36.0364397615907
42.4230731343627
45.9521214112877
47.5551163411405
48.6405689764251
49.7390050505529
50.6530844274567
50.7447721473721
51.7959470883449
54.743829951871
57.3113739619396
58.3381313481929
57.7337267543167
59.3774233760605
63.1662254127443
65.9537412736859
67.7232636206843
69.0576369322648
69.6700355104489
67.9360544289777
67.0670816138065
71.1715303312962
74.6406368085519
76.5779457613666
77.7310007662118
78.5449796415605
79.0515586934244
79.1730369941475
79.5440404312464
80.3184534611413
80.9738489588644
81.8262422910159
82.7143275007317
83.3853403872244
83.7772345514621
84.2762031056528
84.8041000951642
85.3287742467366
85.8706397856205
86.3767164611853
86.8288276410415
87.1924224607398
87.5021567618856
87.7514402554233
88.0055253267508
88.4613257610922
88.8727399104344
89.2128437756822
89.474797745499
89.7348215729549
90.0100159492814
90.2665617436786
90.4729072356866
90.7105822790055
90.9321473771152
91.1361058135944
91.3178620591315
91.481010582619
91.6369717985585
91.8183678572158
91.9628503887203
92.3215922924868
92.7002747211277
91.7344220239652
90.9083987986816
91.8258939212882
92.5844524945827
92.9204207083873
93.3739906946849
93.9758835620718
93.4989790869455
92.574973031879
92.859921979769
93.4572681397237
93.9345613865421
93.8855042033934
93.6237290353781
93.8359689948625
94.2282492112747
94.8868007080274
95.0283743711687
94.2444491458357
93.2182740484018
91.7276669042233
92.4937738780258
94.2956596084165
94.9091328786926
93.9710177333465
93.9022522352113
94.4992691144543
95.0270625124743
94.7034871801312
94.0237827739307
94.1359038850776
94.4965235541192
94.982476418289
94.9177348615607
94.2390548642778
94.4576063442189
94.7201778530569
94.2793020908987
94.5422328441335
94.7332823761032
92.9827860704104
92.3517530089998
93.3439390717308
93.9123615135258
94.3445507649651
94.5709701187366
93.5980587044452
92.8980499096525
92.8498969098063
92.874678755283
93.0990653797388
93.0547551945528
92.4672263692921
92.1571997585921
92.0298256922208
91.0150920324715
90.8078490528339
91.0804934623786
90.9013749412694
90.0783077285197
88.4814863916878
88.1222429795395
88.8191118197587
88.5625062213062
86.9619237419151
85.9705559787492
85.0477425938869
84.3377532599635
83.6634928363943
82.0532463490202
80.8112070963373
79.8344720283344
78.6107939665158
77.5192404176447
76.3069882258811
74.5756639400849
73.283897143967
73.5672627126316
74.0677411857659
74.0175198800916
73.6620150464426
73.4562056747038
73.4868435899083
72.8499340527483
72.7239504758623
73.1133437617578
72.5662493017404
72.7535477605351
73.604594761892
73.9552717068442
74.1478243316327
74.1334272680561
73.5842540504317
73.1291992886731
74.035850339546
74.9066938135121
75.3438495581322
76.2655819972387
77.2171174418805
77.8724242859591
78.4020939764087
78.8648219060625
79.1066005099771
79.5208547610148
80.1315167017928
80.6635892717694
81.2272348783787
81.1255015850297
80.8666618738531
81.6459244862624
81.8933904550962
81.5486459638074
81.0142738699593
81.247549359111
81.9414808402323
82.1300873532857
81.9641001047235
81.6027747138739
81.44023862993
80.9542378973746
79.7439233721262
79.3666846937291
79.3524855173815
79.0566005971407
78.7469685561505
78.4639383763429
77.8393082779444
77.2620848914391
76.3629869716031
75.911728468988
76.8230669926409
77.565307381721
78.0489578173967
78.0323862032177
77.8090997592118
77.6891020337211
77.6696907553414
77.4360985268261
76.623282829737
76.1700005343956
75.9451653821557
75.3783288643579
74.594874492457
73.6832916732543
72.6489560711501
71.5226270882722
70.4249677846885
69.3995268274343
68.7441702254646
68.039228065369
66.7612366700545
67.4445734839984
69.1986519256731
70.4425588673922
71.4649776848851
72.6518816688526
73.7596877627916
74.3375689984684
75.2879828973606
76.6196621187258
77.6756010606801
78.4344102067069
79.0723393195892
79.3349105311404
79.1549150303395
79.3887359681626
79.6304374754082
79.8854480690217
79.4407433913695
78.0118076217518
77.4994770690162
76.9016298668468
75.9753032959789
74.84397641638
73.5154640042782
72.0177746808789
70.4313645274602
68.7168150759997
67.1431447615586
65.7008721292028
64.4869550655091
63.4705795039834
62.7638549389164
62.2143084116822
61.6108278582285
61.6395832317071
62.1460659961266
62.5788381353715
63.0138797471816
63.3334855606103
63.1593099631079
62.963499146922
62.9626832232746
62.5388822044804
61.5480435937381
59.6231735197198
56.9936030709889
54.3003305142443
51.2184679628159
47.7141460439221
44.0469628517425
40.5733020711754
37.5592199872093
34.453796768157
31.8117068404108
29.9690005066153
28.8376599221134
28.3287101454223
28.548846399773
29.330944058527
30.6828635598976
32.4119379003196
34.5733441093247
37.0364556260145
39.9149275846895
42.4504239586605
44.5367824144879
46.7320702175663
50.06834713782
53.8124298957326
56.7753387999098
59.0825484337112
60.9557823314494
62.5579646636069
64.6192973531089
66.748029261174
68.6052541365571
70.2214614169063
71.2273837387983
71.605610420637
73.1553878573691
74.9044006678422
76.576205645555
78.1630522249908
79.2242420954426
80.0388263197783
80.8084777482395
81.4307872719086
81.9758233167224
82.7015914718525
83.442575081302
84.0759938159257
84.6833840139657
85.2055286521849
85.6572067246465
86.1342325081673
86.6339114266418
87.0742497947969
87.4877227118009
87.8726867336849
88.2455566844639
88.5768832703227
88.9759930924095
89.1273130006846
89.1227445180201
89.2644057582757
89.691324220952
90.1642742894952
90.4397589867036
90.7936745709819
91.0708284596005
91.2497503612331
91.3777393614373
91.5300420601674
91.6607138199207
91.7784290561629
91.9141201847686
92.0608636375012
92.1803905663477
92.2891731696433
92.380471548656
92.465186873814
92.5171039353547
92.587441612217
92.6257790551873
92.6684435273594
92.6035934117147
92.5405899345056
92.5823786801785
92.5754677909102
92.6544628217812
92.7316800452119
92.8198668495295
92.8810871292528
92.9790621531566
93.1613772896794
93.3340309152227
93.4803924739972
93.5729791755594
93.6762739966062
93.7965892281905
93.8792443572549
93.9495580177354
94.0213436462227
94.0812908387212
94.136373359497
94.1809358367457
94.2116862987784
94.2371010372485
94.2752513427317
94.28371640739
94.2678300411219
94.2828178463145
94.2916175792779
94.2835028940513
94.2751526125378
94.2708365250245
94.2408189401471
94.2228772038816
94.1985020397936
94.1244223328533
94.052901870711
94.0151141574292
93.9604050725872
93.8675664680513
93.7621311147875
93.6524890547826
93.5256377858998
93.3700730641032
93.19450687522
93.0023050888057
92.7776356023566
92.5226988037475
92.2183125504244
91.8825550159526
91.5100744718779
91.0931606278082
90.5569819716521
89.9486241775944
89.2793361585883
88.5141568096649
87.6248260098458
86.5851857497944
85.3763628921175
83.964283146123
82.3287646450103
80.4294561183414
78.2742190995911
75.9099546405849
73.3488632029566
70.6857768667917
68.1434569106844
65.8507458118109
63.9701979232199
62.6058559464013
61.8439616482124
61.6988048673424
62.1166733735002
63.0023460050485
64.2894554082823
65.8652622009163
67.6350018345552
69.5179715253225
71.4418591448661
73.3327293023546
75.1733240133237
76.923125551755
78.5605285289835
80.0923706253139
81.5007847286814
82.7804566068447
83.9270351713063
84.9574124841248
85.8898928323045
86.7336434432282
87.48886820409
88.1708234552288
88.7888969473395
89.3406075118553
89.834934187291
90.290959357419
90.7131764131207
91.0899739903411
91.4312318967966
91.7476827960623
92.0378336361465
92.3012303357782
92.5372275414046
92.7522386885633
92.9517765424442
93.147020414077
93.3261805334465
93.4869370820972
93.6338967842758
93.7728665059261
93.9062975512142
94.0329656126212
94.1501969074229
94.261587891563
94.3639114533521
94.4782270419936
94.5793287416107
94.6560522964991
94.7390965686032
94.8273431240974
94.9001158734738
94.9655408820106
95.0305029665846
95.0850428562755
95.1300993770112
95.1801717783177
95.2272863637812
95.2623725401753
95.2927571014662
95.3214575558856
95.3383399262667
95.3429589581089
95.3439279274562
95.345747113869
95.3557584808143
95.3482038109428
95.3275726800553
95.3053536192952
95.2803774872774
95.2487290946561
95.2127471902859
95.1766230797219
95.1308775987816
95.0751147861129
95.0234686719683
94.9832126935916
94.9437367888245
94.9010358542202
94.869015828549
94.8546304503248
94.8469123481153
94.8408401494393
94.8363138960749
94.8357959161355
94.8430638006816
94.8689568203817
94.8903535360126
94.8784721775869
94.8687228309588
94.8722105779491
94.8699130976406
94.8661969891557
94.8466228162734
94.8111253265978
94.7725355453911
94.7277132732645
94.6771827385574
94.6148890444296
94.5373528426964
94.4483822002439
94.3427023689922
94.2199329742525
94.08813087533
93.9469991464858
93.7968772579357
93.6236317341329
93.4384369603712
93.2721510143193
93.1129253990811
92.9646832569445
92.8548912758546
92.785121153168
92.74727413493
92.7487600389138
92.7933622591757
92.8622545087601
92.9461277551036
93.0476508459329
93.1426126294794
93.2216129254702
93.2965482805881
93.3654861997525
93.4196124547589
93.4493062101673
93.4648669319466
93.4743959833637
93.4629999821085
93.4367164122073
93.3910979746089
93.3263656377266
93.2672101597324
93.2003722312671
93.109129589955
93.000834076555
92.87913681349
92.7479894119273
92.6118515725644
92.4496504047372
92.2664732993087
92.0722432809272
91.8501588184661
91.6083364334737
91.3521199012333
91.0653351547858
90.7492834064167
90.413227131911
90.0390201121603
89.6125842141614
89.14868730068
88.6404508563356
88.071564052734
87.4330652650235
86.7176557209717
85.9184138763254
85.0256816141439
84.0318082065031
82.9085019740477
81.6448818235997
80.2386572979015
78.6521549374568
76.8763716428111
74.9151428244672
72.7387318439574
70.3511411839283
67.7860315198546
65.0485826291801
62.1561698201853
59.1372954207442
56.0393143702777
52.9021361467728
49.7607149953508
46.6556382313909
43.6471372844217
40.809485737206
38.2094815721527
35.9177528660119
34.0053921640127
32.5261331006052
31.5185386648432
31.0099292791044
31.0135553128725
31.5082354999698
32.4719693940719
33.8767117160192
35.6811859884132
37.8193484256987
40.2216145977695
42.8158064257826
45.5295025427893
48.2782135154858
50.9883367164832
53.5965933497539
56.046967640365
58.2896601987827
60.283722767487
61.9933717971309
63.393598795711
64.4642048727216
65.185980304376
65.544994383371
65.5403565807705
65.1779304354242
64.4994476487514
63.5946388266824
62.605321454724
61.6896643729635
60.9915529994306
60.6379912869938
60.7187034776613
61.2364280430275
62.1432814397319
63.3765949411836
64.8340871715081
66.4308642211021
68.1178768606548
69.8136921828101
71.475072756405
73.0857776083396
74.6186204919928
76.0600391464236
77.4014122089064
78.6467913883404
79.8077440119432
80.8703497444855
81.847086571053
82.7456786833408
83.5690986642069
84.3366496464255
85.0412410774416
85.6760896162491
86.2686325690771
86.816675275403
87.317127061784
87.7731431784843
88.181773685796
88.5596322109725
88.9085074028544
89.2376601762673
89.5486339067733
89.8373161884842
90.1003607663659
90.3403638416682
90.5597191889958
90.7648059666579
90.9583852890861
91.1335686205244
91.2874947533529
91.4253309993554
91.5548419643705
91.6822503215302
91.8066345555793
91.9158399348682
92.0032712046777
92.0919084022355
92.1905715841758
92.2782848595523
92.3669712855015
92.4632630182759
92.5491288935351
92.630089188049
92.71671243047
92.8021757631663
92.8932886124123
92.9747700066923
93.0591080635397
93.1574244483477
93.2603905160541
93.3684406690203
93.478338865598
93.6044738972434
93.7541148800574
93.8968747980546
94.0327634509491
94.1741412633237
94.3148892460439
94.4536609794843
94.5889241146375
94.7107024920112
94.8269091758356
94.9431319447847
95.0395027126114
95.1290264346731
95.2066188665809
95.2730039409204
95.3468119930729
95.4095693267945
95.4748428746834
95.5442456945443
95.6027842585334
95.6512713808952
95.6931628565058
95.7309692754622
95.7771302641074
95.8221157005067
95.8525205928606
95.8783280405211
95.9150407888559
95.9484005985436
95.9781419675205
96.0219753147571
96.0552917844958
96.082160683058
96.133926994538
96.1953475395469
96.2484523375968
96.2873085258182
96.3268435113773
96.3711849179618
96.4162835984159
96.4635505720865
96.5014681149907
96.5389743593346
96.5862023858363
96.6211700598056
96.6631543624695
96.7217831828501
96.758942264932
96.7854650091871
96.820525933639
96.8558688033215
96.8895733572928
96.9118924296513
96.9302951072266
96.9651935541715
97.0016245960034
97.0196433983008
97.0371039445974
97.0634085291648
97.095518832461
97.1320255075819
97.1755476486103
97.1964884999155
97.1967798517026
97.2111015306935
97.2407692730632
97.2626079718917
97.2621906644938
97.2749020216473
97.2886751949885
97.2994459485769
97.3244517488034
97.3432696324245
97.3503901861182
97.372248234235
97.3977123710012
97.4009424934752
97.4111170290639
97.4316205731252
97.4315319348665
97.4262216126092
97.4516072879515
97.4725463718866
97.4930148111469
97.5235205814316
97.5339511730183
97.5273859386027
97.5257978640335
97.5441062760976
97.555480666646
97.5516142227506
97.5586270336621
97.5713356179032
97.5790259211219
97.5927834413909
97.617430546671
97.6320055691141
97.6284322964284
97.6165905806892
97.6273254013064
97.653585615138
97.6761700194458
97.6685487998952
97.6477104131966
97.6367238204943
97.6382869054955
97.6493928617528
97.6509568341913
97.6442437436752
97.6409599428186
97.6624783630958
97.692720521418
97.6993932484926
97.6793191356468
97.6565825485182
97.6668847886852
97.6819441656075
97.6790670924293
97.6664441014879
97.6629346970393
97.6586718975836
97.6533104968072
97.6439504494591
97.6422866810306
97.6472933527619
97.621521007044
97.5851492936247
97.5919062056477
97.6105754520414
97.6081553793784
97.5950264667421
97.5583711149875
97.5109623201083
97.4781053884796
97.4332081415891
97.3804786422927
97.3423561602032
97.2894281174144
97.1960060956387
97.1063098990155
96.9860648566358
96.7901603387041
96.5486009907367
96.2311455638863
95.7736156323956
95.1078978787622
94.1324430813689
92.8179766315097
91.2288462532899
89.6794340745465
88.7325848034525
88.7309232739278
89.5384301473231
90.7847134955983
92.1263209316911
93.3431763809142
94.322452257184
95.0237615392505
95.5451503755033
95.9694753385616
96.2616637067383
96.4878223426886
96.6810549837929
96.8420091404803
97.0155770811214
97.1446251732636
97.1963006761196
97.2521902520447
97.3635488036872
97.4665672437806
97.5031612703273
97.5578989640375
97.6131223530691
97.6361558628583
97.6564742573556
97.6819026530885
97.7244395173447
97.7599752683928
97.7765251036026
97.7680972994542
97.7731189729899
97.814840924646
97.7913237483628
97.7538557635855
97.7992958173572
97.8766469775883
97.8974990676055
97.8921576663999
97.8722738849399
97.8350988501898
97.8460075919513
97.8803085513488
97.8843765145775
97.8867680023244
97.8849396174477
97.8936943107762
97.8936352339999
97.886069640287
97.8937920686784
97.900474836155
97.9078272648509
97.8940669832535
97.868103131203
97.8930439781245
97.9066229286969
97.8881240814676
97.861325894283
97.8737721776448
97.9054548259632
97.8848259621937
97.8655251771817
97.8785606871378
97.8957011412571
97.9029912156789
97.9204185188576
97.9425578827117
97.9534482457658
97.9467569113461
97.9221709738566
97.9191651950884
97.9296596429227
97.9388444582907
97.9394834415035
97.971880406661
97.9912579489065
97.9814330342907
97.994857190531
98.0078789994595
97.9844650090091
97.9939271107109
98.0293999396245
98.0427654494315
98.0574732757198
98.0613665504935
98.0270560556978
97.9935392457931
97.9767007658974
97.9591826097602
97.9717206783545
97.9848119035953
98.0124428968413
98.0408551312591
98.0087579227534
98.0071575847155
97.9809448609938
97.9117677674822
97.8843050294567
97.895615249875
97.9181545504772
97.9626200152169
97.9904898262315
98.0105116922224
97.9923836809584
97.9370517275901
97.8855747459925
97.8984245560185
97.9320932009355
97.9193017440108
97.9103733127937
97.8887408544977
97.8828666242973
97.8719981918222
97.8094753937915
97.7640922231306
97.7623048220712
97.7579595382414
97.7268835766885
97.6905696327164
97.6787264973529
97.6700603932574
97.6303312052554
97.64169158915
97.6199571206907
97.6116116779231
97.6022382961935
97.4936796880066
97.4601444887916
97.5245004175135
97.5174315639823
97.4327781375122
97.3916848425119
97.3640451579655
97.3015271100772
97.316881503535
97.3726277208299
97.372752901261
97.2901244200625
97.238771535337
97.255586787412
97.2976577711266
97.2977997676256
97.312572940549
97.2067380851592
97.0470206517989
96.997127845453
97.0420143700425
97.0639409564573
97.0132629982045
96.9016501843529
96.7403654976836
96.683612809855
96.7260578840401
96.6800217530234
96.5819627644375
96.5842506021485
96.5943853148147
96.4965309284229
96.4981407816677
96.5264208805816
96.4758433897066
96.4237359327307
96.4421437010315
96.4485739619711
96.3551735411375
96.2032232075653
96.1374652118621
96.1134807497856
96.0667333334481
96.0350237549159
95.9994074151231
95.9413530854746
95.8520958037983
95.8518869960583
95.9045835015707
95.7847533209301
95.5904293335203
95.4636734327168
95.4807698756796
95.6157254887614
95.5452999118994
95.3941643166583
95.474581877746
95.4511525345681
95.3868183480989
95.2704388430526
95.1777996121339
95.1329530805277
95.0881482227846
94.9975355619004
94.921353157953
94.8418598519007
94.8159617991635
94.8542557998379
94.9925348632343
95.0759149988666
94.9192494663233
94.8450503562559
94.8851326193966
94.6985809061908
94.4395452085629
94.3997069994016
94.3320419429265
94.0908489019638
93.7998161242204
93.4056368781364
93.1776982269758
92.7561786435274
92.3028018165516
91.8427669047014
91.1977604473528
90.647431112742
90.11196080139
88.0958985692546
86.2347958233143
84.3827107583841
81.4229444773314
77.4180419679539
72.1482968309079
66.3086648245738
59.985413758555
52.7752922372657
45.0962595287269
39.036322861431
36.8019404946121
39.7560602716252
47.0010112121439
55.6629941327727
63.432879366562
69.7326844251776
74.5991135384054
78.4571247537323
81.4937869893225
