3596
4000.36533379555
650.420452594757
1
128
2
97.7402962812489
97.7305851752728
97.7128989847654
97.6970323554087
97.6795857760459
97.6828696108084
97.692874971401
97.6787357281056
97.683410593159
97.7051330655419
97.7283838534204
97.7421364796114
97.7425806103226
97.7229511989669
97.7156742794229
97.7246964186035
97.7171621015678
97.7361058384509
97.7781222884594
97.7843925143838
97.7606459097305
97.6904421121161
97.6729696103854
97.7086454028918
97.7129361552801
97.6973465441078
97.7081570475029
97.7222381254572
97.7328515096002
97.7878087692334
97.7941745396103
97.7554591355035
97.7512000482213
97.7592452405456
97.7583383137594
97.748480734924
97.7306084300242
97.727397500716
97.7164038742478
97.7151645498779
97.7421336168561
97.7625108439616
97.7539434559069
97.7683262950751
97.7868789970717
97.7820556812801
97.7759254446259
97.7936805736543
97.822743195405
97.817130000907
97.7762947223799
97.7773313257713
97.8033750419069
97.7972490275468
97.7527952257289
97.7314971352676
97.7145885662744
97.6866835240645
97.7340734581445
97.8194659765033
97.7973175740711
97.7685312919199
97.7626123533793
97.7949209755941
97.8320086077404
97.8168103841124
97.7866428830091
97.7351199885438
97.7374737604792
97.7499906244125
97.7845973858892
97.8009974150919
97.7791926670336
97.8260917095401
97.8741257980013
97.8328825914733
97.7984640091094
97.7858888716153
97.7644406656649
97.7429014559475
97.752781890759
97.8075122913208
97.8205640181621
97.7893896246046
97.7946982297081
97.7894458495929
97.8024801657623
97.871226259019
97.9015412393542
97.8479004028609
97.830495801364
97.8601349137739
97.8707764243809
97.8625631622847
97.8711005147132
97.8698510547817
97.866250645052
97.8291345754555
97.8304013494982
97.8063107198139
97.798772908822
97.7847110361259
97.7661524771466
97.864378003107
97.8360534604272
97.8570970362583
97.924894158425
97.933670836125
97.9428002209131
97.9339360800989
97.9030031382373
97.8745979669408
97.8809907570644
97.8300063839743
97.8105029406137
97.8692508151732
97.9319554346221
97.9621935111205
97.9482047193627
97.847914247246
97.8204560385418
97.8725097236637
97.9488246863116
97.9845723482334
97.9499810748373
97.9164509781185
97.9613054314658
97.9414843839011
97.9475159422436
97.9466217300478
97.8984082422747
97.8554066010565
97.9173048925768
97.9938562776026
97.9460447269826
97.9088638021581
97.867475781937
97.8610559010244
97.9789927586858
98.0286593241023
97.9837973863553
97.9306307310104
97.9762778331628
98.0373842211662
98.0017691049726
97.944985346619
97.981298523529
97.9922426298287
97.9863850449721
98.0107366647845
97.9852343273831
97.9739863497391
97.9852439169588
97.9351188238684
97.9785548629952
97.9533233540918
98.0255723528255
98.15069696848
98.0686992473908
98.0672255828343
98.1362471417843
98.1630479320557
98.1013040058631
98.0445552091289
98.0268830486623
98.0486015993632
98.0429802545408
98.0097748337438
98.0079646191696
97.9768992272877
97.9899176521023
98.041501831653
98.1335989998633
98.1437950304342
98.095767025859
98.0867219116532
98.0721664493478
98.0328246521346
98.0761573119836
98.1222158305384
98.0919100972231
98.0334851005431
98.0087160816218
98.0626314351672
98.1375227974134
98.1064568525064
98.0741175955014
98.0501303516583
98.0004766271277
98.0268784964528
98.0875139509853
98.0960344559139
98.0490855935431
98.0314896744531
98.001498055226
98.0666578245257
98.1497294718618
98.1398032007086
98.1343949922896
98.1155317928696
98.1079134017353
98.1113361486231
98.1122644633426
98.0998627222393
98.1133515574019
98.163024720623
98.154261248996
98.1148776812308
98.0592467500628
98.019005172464
98.0624612524872
98.1435958642093
98.1535842201219
98.1227409318405
98.0879593311112
98.0568025346561
98.0641201308711
98.1232174691536
98.1686828616235
98.1986401548527
98.1909771296787
98.1475243035182
98.1312664220682
98.1176215594883
98.104079955758
98.0982701799982
98.0889626799743
98.0699336900696
98.0544023304643
98.0860882796632
98.110339117394
98.0985293963137
98.1131841545364
98.0768915193053
98.0575621715433
98.1045786853347
98.1136533331532
98.0703813309297
98.0612791359919
98.0714068451279
98.0589379133273
98.0759659037058
98.1018300740543
98.077987213148
98.048661963194
98.099001046899
98.1108492091302
98.100302763905
98.1013081176126
98.1492691529105
98.1264144488134
98.1078985609347
98.1158654563596
98.0979555848105
98.0952031463896
98.1269408303007
98.1471346041202
98.1309837859901
98.1153664496137
98.1359762316869
98.1802319234026
98.2055531941846
98.1756250572511
98.1547417618733
98.247087869756
98.2357428578331
98.2182140186006
98.2945218773434
98.2732809024882
98.2356021438114
98.2420711869158
98.2425634484122
98.2625952020498
98.2828277376313
98.3309795264703
98.3201849745701
98.2634362772704
98.2224702776938
98.2562877327632
98.2746732351702
98.2231291055087
98.200909385375
98.2510147210209
98.3177663358881
98.2750791134401
98.3096440420145
98.3544609098692
98.2719375549032
98.2353685341755
98.2239066646848
98.1797928516151
98.187187306501
98.210141057094
98.1834470310018
98.1601866603982
98.1357127916801
98.1443024525993
98.1593719518865
98.1701845731488
98.1633116429018
98.2048470098673
98.2006979804527
98.1491115967818
98.1166831029282
98.1744529630036
98.1654086248525
98.102304267532
98.1472587438388
98.168975746024
98.1136771437639
98.1530388433989
98.1927650532696
98.1915013419725
98.1387783886833
98.0985864463092
98.1056153076223
98.1022711737225
98.0129190026473
98.0013639401328
98.0351845170219
98.0147554020689
97.9774327446357
97.9689307014491
98.0009672596727
98.0522372878204
98.0485293848014
97.9943807921821
97.9889456260946
97.9920039413374
97.9343882217747
97.9285319145466
97.9293713681659
97.9620384501401
97.9486643133572
97.8855345040176
97.8820800991717
97.9062692948045
97.8670780565053
97.8023667719797
97.7384022764493
97.691299794868
97.6844993111017
97.7006592022532
97.683090271098
97.6080628416742
97.543252897658
97.5852971658473
97.6096661904217
97.56988938297
97.5511174608419
97.4523599016862
97.3162518100424
97.234585654481
97.1913555901522
97.2247413635775
97.1737413025949
97.0849840196437
97.0089833354128
96.9427710084052
96.8294021804735
96.7463487914567
96.7000701377468
96.6352341242776
96.5257632423293
96.4379468788492
96.3663123982051
96.3147256378182
96.3101238372865
96.3013747146509
96.2210944241799
96.0693122409624
95.9160868240359
95.8423468057867
95.785913380975
95.7934216001148
95.7511943980247
95.643803894362
95.6647483003654
95.6702473429774
95.5896554648946
95.5100500034714
95.4832239349147
95.4110888225534
95.2926554056171
95.1928916205217
95.1295333120819
95.0799669630684
95.0441546669005
94.9700938778177
94.8278311905607
94.7609242579328
94.7946852362318
94.7652230786209
94.6507683660207
94.477782366467
94.3859529618003
94.449757032284
94.5180229235436
94.5372947286012
94.5346131826333
94.5685260714281
94.5632552971775
94.5191829699386
94.4161751403879
94.2957767030452
94.1394807311763
94.0537747590246
94.0468982087091
94.091928344176
94.1592977400936
94.1587949685563
94.1274175304684
94.0958343113385
94.0290468425731
94.0425798846894
94.0476477502813
93.9288679606349
93.8209746737563
93.8264989700705
93.8668223961543
93.9807196422314
94.0182126915407
93.9868762322579
93.931482382339
93.8906937855982
93.8295143942521
93.7852748120693
93.720094278566
93.64637888843
93.6718421289774
93.6927381844304
93.5771853617727
93.5294130024994
93.5790202083575
93.6144462249487
93.6419518782028
93.6090612923523
93.5287912046448
93.4125131791811
93.3029795711175
93.2751775482952
93.2770785085554
93.3547628284852
93.4379859598892
93.4862144553128
93.4439390087063
93.3654754618262
93.2776499194953
93.2612863388945
93.2413863507315
93.1727927007719
93.1297954655052
93.1393743905625
93.121223831798
93.081446335492
93.04679036283
93.0182943548023
92.9747432775339
92.9318163290874
92.8663588575205
92.6902152421408
92.5085032559911
92.5345312636714
92.6383957057078
92.7160876320747
92.6781864180811
92.6820048401208
92.7456371908967
92.7266878151044
92.6226419107048
92.6041859440843
92.6139957949386
92.6119631271877
92.5900383775676
92.5362588728657
92.4101554714203
92.2794176387348
92.2335874364518
92.2112211475457
92.2012046500272
92.2082635684689
92.1767164696058
92.1198208844744
92.0561965508314
91.9876705749169
91.9246404875882
91.9396204419845
91.9520141088477
91.9347734963628
91.9228710267088
91.911597833439
91.8798174991576
91.8248295267453
91.7325004480363
91.6743482139436
91.6773160757895
91.6623051119496
91.604888730331
91.5735734808293
91.5120168964502
91.4600273027033
91.429054560031
91.3602834820619
91.2685228233549
91.2454054937752
91.2831808778137
91.2843180022583
91.184718044199
91.0950405188496
91.1016102742058
91.1634046855043
91.139923616334
91.0891410077019
91.0368693225693
91.0144331639356
90.9885642806309
90.9358324555849
90.8989600161819
90.8627294020182
90.8023864837194
90.7638223999479
90.7432073340404
90.6516476634798
90.5733952401949
90.5825910663166
90.5672908043154
90.5576853903759
90.5289666858937
90.4726460725375
90.3893657414085
90.3061101010724
90.2630754976922
90.2733298779214
90.3107349935338
90.3121561075278
90.2709920858599
90.2018174793438
90.1247701183069
90.1325277954905
90.1351782429516
90.0781780604554
89.9882307335037
89.931831765027
89.912260717968
89.8816575716888
89.8390447820484
89.7940994849982
89.7807639257193
89.7618986951824
89.6889530822263
89.6555786276409
89.5967157733426
89.5431957349513
89.549901022236
89.5540884541871
89.487186164214
89.4367181733291
89.3837165984218
89.378035267942
89.387947325213
89.3257257165004
89.2925842940907
89.325909903008
89.3025138160497
89.2471432759079
89.1933745629856
89.1404170845829
89.0856406224427
89.0600763079206
89.0394392189005
88.9993934031669
88.9240603678347
88.8639566119928
88.8194471669671
88.8082450184198
88.8209967279125
88.7933865955388
88.7553198031599
88.7425704024842
88.6904083306558
88.6520075438222
88.65857651996
88.6331717194594
88.5667613918949
88.4965946540803
88.4160791638424
88.3860955146708
88.3794339074823
88.3330813052443
88.2465000662954
88.160802474087
88.1459354651338
88.2009254239998
88.1953721490872
88.1659026077511
88.1321300885758
88.1302185381468
88.1111744243051
88.0497183641807
88.0064161743423
87.9564858693919
87.908847150245
87.8941914119313
87.8546016937224
87.7985187181095
87.7762320319179
87.7822296436365
87.7687499622988
87.7422664106851
87.745088347839
87.7346502321084
87.6581626223879
87.581446095319
87.5811115687831
87.5920187472826
87.5428072339071
87.504956268971
87.4935987232479
87.4655998202833
87.4200504650638
87.3935517436454
87.3695308088445
87.3640415644197
87.3789228979265
87.3707142525654
87.3522623850826
87.3504515734281
87.3200081238085
87.3070055325954
87.2980070570976
87.2669684651804
87.2582564297268
87.2408711711237
87.2025384539434
87.1839821794594
87.1707132818057
87.1692279981976
87.1779711504406
87.1989445353268
87.1671980654476
87.1467838457268
87.1884289599609
87.178162023689
87.1154396226425
87.0757073328397
87.0465156950868
87.0576797908026
87.1088598254961
87.1110675318229
87.0680363297159
87.0332627238565
87.0318654409571
87.0953102396898
87.0972928436701
87.0490330765976
87.0410254339385
87.0405463608402
87.0281211228834
87.0545691252521
87.0634625833542
87.0545863281741
87.031518076993
87.0090417071615
87.0185706077869
87.0373384582559
87.0383958262329
87.023350398366
87.0039870239892
87.0097476175721
86.9944767983252
87.0169667559767
87.0448207181262
87.0331963742233
87.028031908694
87.0003065911007
86.9771904971475
86.9940082964722
86.9626192448814
86.944910062571
86.9981223675509
87.0467911699534
87.054686474792
87.0211843144393
87.0062446810096
87.0283925013443
87.0557154446528
87.0612912606237
87.0380186574401
87.0321975712991
87.040164010973
87.0441989735301
87.0726424475821
87.1083999071592
87.0841326854396
87.048827639
87.0499017652644
87.0743047952501
87.0962338312233
87.1102304807042
87.105345454053
87.0934950554571
87.0741843426652
87.0695175942116
87.0738307947388
87.0918985082649
87.1237098246342
87.1510135774782
87.1320402918485
87.1229247718932
87.1429530265706
87.1323495199315
87.1047425245932
87.0987630660399
87.1045565819612
87.1269905518748
87.1485880043386
87.1560471216071
87.1607662125519
87.1270294993811
87.0910387240672
87.0716769238083
87.0680159960129
87.1295513936499
87.1827499368189
87.1846142378067
87.1744009382362
87.1657121930468
87.1660629194803
87.1656692519177
87.1778930397331
87.1620200001063
87.1316347572107
87.1697406679503
87.2167340142714
87.1990069312452
87.1780490880548
87.1876906282644
87.2135885655132
87.2223315507875
87.1943618694248
87.2000908379792
87.2337919692712
87.2659589701673
87.2915922131594
87.3293823774976
87.3478634689316
87.3594484929936
87.3893732618051
87.3991411960607
87.3953458168989
87.3815620790541
87.3890380265307
87.4363049948915
87.444545458229
87.4503598632894
87.4716532708086
87.4692490743362
87.4848854418108
87.5148586036937
87.503192167456
87.5259636719629
87.5765263602974
87.6004221569981
87.5939978584951
87.5963307432274
87.6052521010884
87.6294364959339
87.6171709804509
87.5950590769887
87.6077356963259
87.632966885414
87.6228760592839
87.6448870341861
87.6701103631431
87.6634759869469
87.6650422068635
87.6585292801828
87.675408873057
87.7186708957467
87.70277279701
87.7034137673267
87.7669693981053
87.7830825464129
87.7783408218283
87.7874549049345
87.8105696793918
87.8114050128441
87.7952368152438
87.7998602397408
87.8148112657339
87.8142646520586
87.7921986012086
87.8154691770018
87.8642952531048
87.8524322872218
87.8025366467619
87.8372248092975
87.9002064402076
87.858264712357
87.8180571925916
87.8594732930961
87.9135428248284
87.9149857340457
87.8985064477332
87.9182986785585
87.938349906748
87.9397886880196
87.9221964526934
87.9394467266925
88.0156147939205
88.0417406190759
87.9789687817169
87.9331246112295
87.9718248093111
88.0161166799413
88.0095543856917
88.0117811417549
88.0129145690409
87.9958842209274
87.9724294634496
87.97624534531
88.0120502861797
88.0680586169512
88.1015730577346
88.1169660928369
88.1319521746878
88.159579984513
88.1639841856911
88.1419600596266
88.1366048913191
88.133446386656
88.1489016529972
88.180910613695
88.1785545572974
88.1910702880404
88.1878579983442
88.1993106142949
88.2187659719142
88.2205105752566
88.2297292604358
88.2440441742436
88.2348308951988
88.2410803637602
88.267206246129
88.2988135991584
88.3100567778389
88.3135132334306
88.3471838140164
88.3547538620612
88.3594344022475
88.3923448254376
88.4325497423966
88.4336848068852
88.4116151441373
88.4251916051578
88.4348430269605
88.4311170784754
88.4273974293648
88.4358152139665
88.4517843561711
88.4718163508903
88.4943972020655
88.5189788849856
88.5323792584585
88.5386306159704
88.5636362729359
88.5975097208572
88.6200077636486
88.6591630144004
88.681871575906
88.6711899529837
88.6951086272886
88.7439986128731
88.726223198698
88.6966180930591
88.742711324452
88.7735679137574
88.7688806946961
88.8054019160953
88.8490804599714
88.8650124991738
88.882517827262
88.9138796998157
88.9255107295121
88.9384783101471
88.9821430652
88.9982817381321
88.9867381057659
89.0202250792957
89.0464690579035
89.0639191972456
89.0860190957466
89.1077033641571
89.1245715235648
89.1570870299973
89.1997848558472
89.2120247908069
89.1989392783541
89.183821318234
89.2002748196495
89.2659978580104
89.2885551999621
89.2595781163448
89.2503281159505
89.2817888170759
89.3007572271383
89.2976772357802
89.3203032480138
89.3796523580755
89.4332603155785
89.4792870975122
89.5068060540851
89.5255769626523
89.5304519935388
89.5447817961023
89.5194821333767
89.5141501726086
89.5502964642424
89.5774798561196
89.5899976938635
89.5976571686452
89.6144842494089
89.6513464706305
89.7013594782088
89.7351611271546
89.749118797375
89.7481822911756
89.7456891805966
89.7647789305509
89.7791506384363
89.7603124944064
89.746100923044
89.8052520164356
89.8634808829349
89.8613997113202
89.8245357582619
89.8211934276528
89.8499894037603
89.8470642109569
89.812451170797
89.7970762011233
89.8313172517523
89.8839425274965
89.9279498459217
89.9819397673347
90.0369355729852
90.0555379010826
90.1044701853719
90.1755451890141
90.2215253892641
90.2294051903717
90.2013693275219
90.183848546157
90.1843340001323
90.2078936990535
90.251736479188
90.3056944011082
90.3438436647161
90.3697449393975
90.3478408613475
90.2810277073336
90.2288558852225
90.2234758553226
90.2806246704437
90.3523465792381
90.4299680825939
90.4487885118736
90.4188321879858
90.3903702125211
90.3930987529341
90.4049257899501
90.3846116093213
90.366466285156
90.371752335298
90.4026380620002
90.4304861334801
90.4383917011825
90.4593807643757
90.4648439968909
90.4413158165621
90.4696886549663
90.5276347426459
90.5501894423931
90.5619279774961
90.5737251718926
90.5803036051954
90.5934397517725
90.6514578386118
90.7295423959106
90.7797269174631
90.7696556179203
90.7331088342378
90.6729294233321
90.6101198794682
90.5940485974921
90.583051471858
90.5377022602575
90.5242932873683
90.5415349307379
90.55355633605
90.5843952536345
90.6194521133374
90.6283598537984
90.6504000821585
90.6764296782638
90.676672483636
90.6545070397909
90.6693298470746
90.6556976275451
90.6338104321354
90.6783928411366
90.7163189345259
90.7287294518099
90.7606086305198
90.7849627935919
90.8087574471182
90.8561757790162
90.9059773146367
90.9778559896093
91.0469948901388
91.0560377440028
91.0112445305401
91.0287218306132
91.0627889040676
91.0693716508418
91.1094064662754
91.1801406372398
91.2253709942458
91.2681110616228
91.3162575971364
91.3203544455601
91.288075706064
91.2911226955615
91.3249051319851
91.3711179088334
91.4045814185244
91.4060250884829
91.4068363691054
91.4323347305586
91.4742691971819
91.5009128858316
91.5116122599995
91.5099815857657
91.4982726097935
91.5086104588136
91.5449802885924
91.5845136907701
91.5976041702095
91.6330196954608
91.6597086341066
91.686179447185
91.7020994850212
91.6909548559963
91.7153581997839
91.7412577081433
91.7633583274042
91.7841538502916
91.8128045121195
91.8722348608233
91.9274753076677
91.9938010759889
92.0462863750868
92.062290116514
92.0718516468573
92.0514204231596
92.0210444755803
92.02934179634
92.0640880036216
92.1050371489837
92.092341368271
92.0587772115195
92.0917369675677
92.1464926253335
92.1807791054883
92.1813553312519
92.1765386733095
92.19551581858
92.2107453859641
92.2337485256072
92.257659652841
92.2849964049903
92.304044197075
92.3156271797546
92.3591155917299
92.3842415258864
92.3920759897759
92.390503883281
92.3729099461351
92.3745783790626
92.3728588716066
92.3614646636455
92.3770039947853
92.3928394274063
92.3931453201523
92.42913513737
92.4520071542581
92.4279144703571
92.4414621874825
92.4687762349453
92.4963650530151
92.5164796890401
92.5175337650832
92.5547054165992
92.5881833595534
92.5773693221663
92.5853183681869
92.6066265399253
92.6004376911326
92.6049548692789
92.6093984925111
92.6181186023114
92.6371148017909
92.6553497573018
92.6492008281936
92.6594689094513
92.6534354170042
92.6562221385439
92.6732263992527
92.6780788124993
92.6998964204216
92.7086409327476
92.7059895607103
92.7181413907073
92.7645748022987
92.78394483971
92.7649533411602
92.7647592443759
92.7739367477107
92.784707600624
92.8237337769212
92.8310396152089
92.8010728131967
92.8339331965588
92.9004769138626
92.9110674701063
92.9176586589718
92.9315842431654
92.9194128527646
92.9257362488636
92.9429758893974
92.9562641890691
92.9624262853322
92.943682764057
92.9207883413982
92.9292480738154
92.9437706372866
92.9548769411557
92.9712017845068
92.9922874045398
93.0137172714147
93.038414369528
93.0598156393452
93.0530024198481
93.0453500559714
93.0585559986114
93.0659584955497
93.1025387874497
93.1190439627706
93.1079792708496
93.1072942788536
93.1431005897405
93.1852297470398
93.2179657629588
93.2432131567833
93.2780225855163
93.3017143472701
93.3406165044636
93.361975721813
93.3784141677933
93.4034535501022
93.412107160333
93.4261021064386
93.4324606721453
93.4300993141833
93.4436604438812
93.4830801899941
93.5079960090315
93.5060554490324
93.4782582201968
93.5021461418628
93.5317904962636
93.5119697567367
93.4962456522283
93.5315791933199
93.5616036167246
93.5771502284724
93.5785221070323
93.5798279917901
93.5867898380396
93.6023162991406
93.6231061941689
93.6503620138652
93.6753364490011
93.6786344766612
93.6888263737858
93.705971041555
93.7149400740076
93.7154212933649
93.7315894385225
93.7492172039297
93.7336036308754
93.7373421957476
93.7416543458777
93.7230750781962
93.7124487358416
93.7026487838869
93.7288690698039
93.810987204256
93.8946212929407
93.9340636880519
93.9726523563449
94.0003876558367
93.984867413803
93.9683645037208
93.9716987546437
94.0041560199681
94.0188053432419
94.0230664788774
94.0320673083441
94.0061454500158
93.9634409342697
94.0211300931163
94.0975599477103
94.1116172470476
94.1374678875715
94.1717447047143
94.1990565505206
94.2108475970508
94.1871716033575
94.1498399761956
94.1298052351517
94.1293388901342
94.1275331660937
94.1221929071974
94.1777906456577
94.2634385573449
94.3302478791384
94.3319433513708
94.3066171157543
94.2761358730319
94.2517467227343
94.2143026591015
94.1933069634488
94.2057838687473
94.2876710948858
94.4066981148253
94.4655891847111
94.4587888312424
94.4902264434493
94.553874370935
94.550798143625
94.5547098047418
94.5847580396797
94.5835213307718
94.5724323383146
94.5622806635481
94.5440393857501
94.5237614497583
94.5167566190882
94.5254762977502
94.5167411353925
94.5279754244892
94.5481279650297
94.562141490033
94.5854687842172
94.6044169766311
94.6026320870869
94.6147727347154
94.6142944133249
94.5975709660455
94.6149554154897
94.6362905995783
94.6028930908775
94.5615711698763
94.5511072337854
94.6113879359094
94.6807344497104
94.7089892600865
94.7184673707787
94.7230639244599
94.7192811981475
94.694910519171
94.68724389909
94.6867312390193
94.6740521185808
94.6401391637471
94.5980714245697
94.6330216009786
94.7471537131963
94.7935505214515
94.8017746351095
94.8333805197857
94.8485078735794
94.8275772290976
94.7967033039734
94.8224971994243
94.8250365317864
94.8527925722148
94.9462570708057
95.0203402669148
95.0464045699815
95.0529914523944
95.0540164555031
95.0278899152696
95.0079350658207
95.0023004611804
95.0059557438447
95.0068776478788
94.9828404716843
94.9689195079581
94.9709073710124
94.9542513297667
94.9866831101153
95.0665462986664
95.1183650417861
95.1516172398815
95.1915950539506
95.1919521534807
95.1844267726848
95.1872912772571
95.1813139794865
95.1940845297031
95.2077586888806
95.217063683464
95.2245779732819
95.2166782667505
95.2001941397788
95.1872601723479
95.1873199629621
95.2082994411318
95.2147435830618
95.2083276824208
95.2182919662707
95.2575743995598
95.2854167400394
95.2960394860953
95.2756673163666
95.2462869506631
95.2424781941807
95.2595209070435
95.2817723869255
95.2963815198663
95.3505794267914
95.4020860104611
95.408101050386
95.4165114648065
95.4368857216875
95.4536441664585
95.4494634662879
95.4355696264198
95.434043488192
95.428499492953
95.4271985437249
95.4617661285383
95.5026767251179
95.5224693774482
95.5452418270452
95.5345083392598
95.511175161047
95.4836192197733
95.4687009008733
95.4625523114468
95.4672056919381
95.4747265872919
95.4811033465099
95.5204816660647
95.5889867888693
95.6108616523524
95.5894487499466
95.613091964798
95.6525247481802
95.6843974662399
95.6906825064161
95.6583761671935
95.6474372286347
95.6549693329228
95.6752659740262
95.6816000735376
95.6864029081723
95.6904128087534
95.674979671533
95.6615289486699
95.6835886474296
95.7064871637149
95.7039797149823
95.7108644698179
95.7374622045803
95.7569778816642
95.7483111530122
95.7254147497129
95.7334973330301
95.7530997952803
95.7652789550969
95.7780135967919
95.7940216745174
95.8140265775203
95.8296485372886
95.8501604057183
95.8679909232726
95.8681496522267
95.8636578332108
95.8513173914204
95.8427981829887
95.8575050087276
95.881912837172
95.8868153287511
95.8975524202322
95.9111422772302
95.8982762952918
95.8893783150894
95.9091528612159
95.904193388636
95.8887552698572
95.9054513097771
95.930904270193
95.9332458305768
95.9444281571529
95.9768041948789
95.9861960300606
95.9846647358918
95.9909310960141
96.0056503910847
96.0365855418626
96.0535227083118
96.0483680657427
96.0310589024659
96.0345465332894
96.0350319494015
96.0305512409898
96.057173894173
96.0563718781236
96.0438870362208
96.0294436705854
96.0183556579502
96.0300847047064
96.0292470043107
96.0275923634903
96.0292842983485
96.0216880825478
96.0234797694221
96.0323378677573
96.0312876448157
96.0283614357474
96.0152969290662
96.0090617310589
96.031499875065
96.0545851143435
96.0551612979107
96.056050158314
96.0703520527866
96.062536321276
96.0701328407759
96.0913631739097
96.1102686890295
96.1137612030541
96.1021367410163
96.1100606115595
96.1361394455601
96.1471585569195
96.1515912495825
96.1829056504782
96.2218248571522
96.2235200434587
96.2053853425184
96.2115839147853
96.2259987359129
96.2412755485215
96.2505855447884
96.2505563460854
96.2590746164714
96.280918417707
96.2915731448039
96.2923446250374
96.3161937425706
96.3451402172919
96.36169192441
96.3598388226881
96.3629538822482
96.381617082006
96.3986004452471
96.434050973499
96.4405931082641
96.430449546638
96.4460693054912
96.4607531585844
96.4496632764434
96.4544322277978
96.4806827495692
96.4983914736898
96.5144111064433
96.5225649204539
96.5029732685687
96.5040516077443
96.5288313584998
96.5290722451198
96.5199542568431
96.5345998909995
96.5840741265413
96.6192146130906
96.6232522131227
96.6180605633553
96.6237404628501
96.6430740232158
96.6715083023953
96.6965637833328
96.7102701238335
96.7280164702056
96.7364913358955
96.7544750348245
96.7758958372845
96.7888040595433
96.766946385906
96.7503212625547
96.7915504014097
96.8222843650943
96.8213802449559
96.8614155495016
96.8707632287133
96.8411980421014
96.833785385645
96.8617342636624
96.8819354712047
96.8740127125998
96.8742934172816
96.9077500033763
96.9151021004863
96.8845340792234
96.9100656773242
96.9676862558549
96.9787756899494
96.9681711295786
97.0037792220171
96.9761948076944
96.9779077780404
97.0025045571104
96.9917628667494
96.9908127630923
96.9756279735994
96.9573807232336
96.9556162988212
96.9603905871608
97.0206758949132
97.0711441071218
97.0418268483615
97.0184270117007
97.0354973810135
97.0294150012991
97.0059747090381
96.9846915660751
96.9818129229248
97.0299921301808
97.0445574692832
97.0375229872088
97.0352759386072
97.0197539018108
97.0150377597471
97.0348800248692
97.0162128747105
96.9919980141357
96.9719597402956
96.9861537052458
97.039629594676
97.0528544939551
97.0201677829234
97.0026607179373
97.0231546355393
97.0371884133492
97.0576834385682
97.0682059932062
97.0577041283889
97.0729850662676
97.0842264259237
97.0195583262506
96.9692570897154
97.023451250585
97.0678399600231
97.0619313459918
97.0478765815677
97.0352564093782
97.0584572250662
97.0618089047134
97.0603303222842
97.1137520469371
97.1432677323966
97.1203675831015
97.1048173609974
97.0991551253585
97.1081598792753
97.1197595053136
97.1350301005251
97.1207389860269
97.1367187692115
97.1541910119909
97.1253144357003
97.1251897644229
97.1437188934337
97.1258124308553
97.1386071136983
97.1674431310288
97.1806144356564
97.1841638344357
97.2154129874439
97.2205101336053
97.1890503181531
97.1955958393301
97.19371627502
97.2183747118864
97.2892579386343
97.285874227857
97.2544434907939
97.2620358669147
97.2612534740995
97.2557522979359
97.2709140376016
97.272065641362
97.2855806930882
97.3366458130162
97.3539196863759
97.3160506732792
97.2915827246815
97.3179494505252
97.3293798006777
97.3125315546317
97.2990334341126
97.316058900016
97.3035948301027
97.3000739679093
97.3254952037134
97.3610602504278
97.3580980404904
97.3243764388395
97.3245674964122
97.3169411404913
97.3175413284224
97.3678680916224
97.3871062919027
97.3350802416253
97.2797067574909
97.2858348281176
97.3721686289105
97.3884572957545
97.3824374322093
97.3944512648586
97.3792442235396
97.3856718995068
97.4067230633247
97.4275023212879
97.4294349271292
97.4288526701428
97.4255734465273
97.4180062286584
97.4366259113002
97.4357023975057
97.4439723676416
97.4824196957647
97.4938406266021
97.4465442512141
97.4311791692335
97.4766166510908
97.4720192149598
97.4585641514281
97.4601883109767
97.4590094400518
97.4569012533709
97.477990825069
97.4643274243265
97.4265802924973
97.4512343215016
97.4888542638772
97.4985914657567
97.4559322336574
97.4343596550275
97.4709841619266
97.4734139505596
97.4742171230861
97.5038491361757
97.5059766397357
97.4978212426033
97.5187042988672
97.5528663654138
97.5628542146022
97.5136819412683
97.491366537999
97.534001731995
97.5767501289665
97.5898607091247
97.5590866128366
97.5438525137698
97.5377859896108
97.5381112355854
97.545377755509
97.5427253090069
97.5458740192009
97.5786591051056
97.5828089938678
97.5716599838128
97.5602948210906
97.5688449025412
97.6002568062791
97.5952829353048
97.5576423874055
97.56810260019
97.6090949233366
97.6243377058876
97.6021971559694
97.5967885785447
97.5803589923587
97.5710161250786
97.5833522445705
97.5974659413496
97.5991701587057
97.5936033467384
97.586157429581
97.5728251589326
97.5644914316596
97.5838227018038
97.5988780316914
97.6168799887875
97.6083995927051
97.5805821398812
97.5907755879898
97.6077879453678
97.5979859635498
97.5918154014742
97.5885442783549
97.5760004281051
97.56519012382
97.581026977145
97.5784761871938
97.5533894595748
97.5426863937563
97.5451299953185
97.5316569388541
97.5073731357821
97.5100391082916
97.5320160313043
97.512094017589
97.4994122993855
97.4980765554749
97.4923517311913
97.4836205492255
97.4720453286641
97.4817963669486
97.4951188989692
97.5092893767909
97.5453006500666
97.5242294409917
97.493520456115
97.5048351521711
97.4791372617607
97.4425916780292
97.4698931712297
97.4846778171076
97.470500292489
97.4772399552393
97.472381634386
97.4592307899771
97.4333403838338
97.4337087318678
97.4807943541679
97.4793185732701
97.4499414159409
97.4172366054426
97.412685799988
97.4111517389966
97.4149332490046
97.4196098778722
97.3912251699205
97.3945495357745
97.4159019261228
97.4143489751601
97.4252768923667
97.4030581582227
97.3493706946595
97.3370840210342
97.3505898283018
97.3354953791379
97.337090497315
97.3586998444282
97.3818059572322
97.3914198358626
97.4473593570574
97.4587537731966
97.4490687494375
97.4327920176221
97.4557158285103
97.4474250099677
97.4476596192084
97.4505702484775
97.4812567842134
97.4283693378497
97.3978809699296
97.3708813440925
97.4073009541816
97.4135431284086
97.4366001874904
97.3501042258084
97.3154731563659
97.3054509233516
97.3402674225373
97.3323571948869
97.3949335352341
97.4188512296145
97.4249591574401
97.4052670188508
97.4643175082652
97.4933527233861
97.4781494609722
97.4991036220924
97.5281874811272
97.5833661402553
97.5982541903411
97.6232868159536
97.6305962691795
97.658938924481
97.633436647748
97.6046741428813
97.6140756091329
97.6438395458141
97.66927816688
97.6841555575239
97.7120729330429
97.7106756305308
97.6922550800608
97.7103251694331
97.7499468869957
97.7646897538875
97.747433045225
97.7494119540884
97.7447544815682
97.7361452797663
97.7383381231855
97.7499997456113
97.7865582846898
97.7894322190079
97.7631358835962
97.7613149548704
97.8222765895371
97.8807117927633
97.908608807552
97.9122908327071
97.8882851775561
97.9144056704746
97.9297651916561
97.9526298684704
97.9811815318685
97.9723061240216
97.9792531147014
98.0190015379755
98.0922140359739
98.1217279393925
98.0917655043166
98.1013988755538
98.1303687956734
98.1594998149569
98.1858089174306
98.1902686695387
98.197272680704
98.2112833647221
98.2313169964536
98.2979001594567
98.3428304985062
98.3168317356802
98.2562745943045
98.2402561554241
98.2931486217607
98.3503704804855
98.3625140281498
98.3649216644192
98.3454068252845
98.3999844839338
98.4808697104285
98.4518772428899
98.3935418627382
98.3808147047499
98.4056902766249
98.4363885853712
98.4304883453619
98.444442140076
98.4831991285105
98.4813151984452
98.5097682477376
98.5671512635536
98.5672904375437
98.5220036771807
98.5371744895812
98.6265048970806
98.653264724071
98.5467637151674
98.5053711592175
98.5845109639284
98.6182217168957
98.6136418122431
98.6206568281311
98.5959850129344
98.6389224459606
98.7350732820414
98.7301499736077
98.715401140664
98.7278160473053
98.7516981145222
98.7597098180933
98.7727462443183
98.8561798787613
98.8848798896372
98.839355764593
98.8084898402598
98.8476235460039
98.9176231614625
98.9241441796045
98.8789198907646
98.8401975998449
98.9080734728146
98.9270770826338
98.8523134080292
98.8391426124864
98.9325760621795
99.0478877015845
99.0357560513858
98.9925597372987
99.0005076515609
99.096175685447
99.1052094593175
98.9842961738939
98.9636249343896
98.9542631944694
98.9348741220876
98.9777277206884
99.0250323482226
99.0493438836857
99.095979200752
99.1326426327295
99.0946285560455
99.0396555962619
99.0786259777463
99.1924744732616
99.2534726463633
99.2639421497062
99.2510430782847
99.1856037738443
99.1936343228996
99.2288274437592
99.2481600866663
99.3184714075862
99.3424154165332
99.3453873335844
99.3817784737812
99.3984657970714
99.3706137731121
99.3750139898638
99.4547524244073
99.4638513581356
99.4675231473439
99.4978799139514
99.4648208291582
99.4578083978367
99.5191613053137
99.601285055595
99.5893612835768
99.5413688609374
99.4953123956811
99.5456375714472
99.6785955246304
99.6525811469885
99.4911170648638
99.4305899001575
99.5598873121174
99.7252773298207
99.7587432804003
99.7199185417915
99.7342509100081
99.8647772302682
99.9453602472761
99.9104442925791
100.005559328488
100.20019574244
100.335552255512
100.320089101816
100.128202890069
99.9353391602909
99.7085360616538
99.6544112981966
99.6445879162643
99.5396620068148
99.6095391371142
99.6119861439861
99.4654180125876
99.4595313274189
99.5417881541197
99.5297570904737
99.3830342879166
99.2853436303092
99.2583912735212
99.2233808737619
99.1561334482177
99.0772431946251
99.015959292108
98.9866017311725
98.9094107722894
98.8657571553389
98.8896198405347
98.8652717318406
98.8394390631035
98.8268861626128
98.7281179008547
98.6170740681074
98.5602937022773
98.5571591143962
98.6108841926357
98.5888083163107
98.4696094952126
98.4512533547685
98.4534073530882
98.4236553810029
98.4978263678365
98.5355016849809
98.4674629203716
98.4442169872659
98.4691388012078
98.4806293378951
98.4275188437316
98.3610319070692
98.3319911853824
98.3382702654101
98.3698516331925
98.4285395863672
98.4159650136755
98.3807672002999
98.4025415648926
98.4410284956223
98.4799932104576
98.455916103447
98.4125379268839
98.3903947128764
98.3529166234505
98.3667856577609
98.3802388103211
98.3493113871197
98.3242912806759
98.3342470909616
98.3482661939544
98.3559603681905
98.422399120353
98.4847588292384
98.4531140632099
98.4209152450375
98.4658713473991
98.4726822119327
98.4145520648406
98.4659705340626
98.4992273460475
98.4172941618724
98.364795929433
98.3457606238141
98.3363751620506
98.3467163765953
98.3557843515848
98.3840880185668
98.3859809391891
98.3939801279662
98.3896410965299
98.3893868918811
98.415329297246
98.46136270855
98.506226659986
98.4760010035611
98.4452003033034
98.4153009377708
98.4434636268861
98.5628595351929
98.5849882709064
98.5549353912309
98.5282576705589
98.5042116876943
98.5311847236746
98.5954040353944
98.5619994029982
98.5818922598158
98.7052205823497
98.6957786047921
98.5719092449066
98.5371755246045
98.6191641602149
98.6368821157711
98.630560056843
98.69143704974
98.6631049395118
98.604388781427
98.7826393905061
98.9245300227279
98.8974510799064
98.9389500029519
98.9227042592482
98.8608206838592
98.9802614799688
99.0656502144374
98.9725165505882
99.0215171106141
99.1561720949442
99.1774149966599
99.1091000676532
99.0759809397175
99.0537308796798
99.0780844715435
99.2048771560832
99.2472112990629
99.2042004140963
99.2022884436042
99.1910641177855
99.1780941614773
99.1977343224889
99.291178944419
99.330741950798
99.2956064517817
99.3480285595257
99.4313815196214
99.4044568389246
99.4182208718568
99.3562598721258
99.2428705350313
99.3384835956194
99.5048908058927
99.500761401207
99.3690568288317
99.3164835537377
99.4272960910474
99.4850304144554
99.5098917194023
99.4795318723153
99.3543592820462
99.3579989177397
99.412728151283
99.3433440719686
99.3815253070793
99.4246428261309
99.3041374113929
99.2663021708588
99.4256071323876
99.5593079853338
99.4310039262583
99.291191689854
99.2843601162139
99.2336470787746
99.1251693487581
99.0142344065091
99.1038939237702
99.2474294681764
99.1723870114991
99.0415318012374
99.0059629621706
98.9712286561281
98.9800361398702
99.0050375939295
99.0202313051471
98.8988532567712
98.8562324349498
98.980402810497
99.0508833218217
99.0404893096561
98.9714236158116
98.902618365374
98.8673490645816
98.8715519007127
98.964838140129
99.0099413268364
99.0479598046692
99.0788247847446
99.0742810500581
99.0696356763861
99.1803175934776
99.2418483517461
99.2211393627136
99.2471952032511
99.2094078949041
99.1784986954224
99.2410527049588
99.2212079625375
99.1382027334259
99.1289837781924
99.22509029438
99.1465312342158
99.0113352279336
99.1052967210942
99.0790573580422
98.9194725862854
98.8100743380716
98.7580409675205
98.8569361336953
98.9191280011682
98.8917135274406
98.845273676742
98.7914166327921
98.6732641218844
98.5804136962756
98.5842861822069
98.5731411070248
98.4985797378956
98.4777843690407
98.5373717034885
98.5983244261293
98.5971192070175
98.5700299697313
98.5455142537163
98.4973473008076
98.465312414915
98.4775186274378
98.4817877010023
98.4140735749446
98.3455581494946
98.3395291370814
98.3262765331059
98.2842983123233
98.2223887052404
98.2015554236416
98.152282350142
98.1272902530721
98.1584996755431
98.1655606608763
98.1250090250112
98.0747423810979
98.0768645257183
98.1141107796316
98.1039392810274
98.1283156750256
98.1783335150136
98.1434721113804
98.0945485239501
98.0876730285522
98.0415369590342
98.0464682063115
98.0700924686428
97.9914835457474
97.9148468152778
97.9326172257297
97.9857582541244
98.030981637341
98.0425942829356
98.0561881166242
98.0490136638148
98.0716495819596
98.1017543186402
98.1142174564674
98.0521310223859
98.0343227760224
98.0570119060274
98.0452695266146
98.1120473047102
98.1719606675122
98.1273963455226
98.0751471342434
98.0924401675745
98.1194225970066
98.0847201578712
98.0917162863727
98.1378114056819
98.1612033368405
98.1265982182799
98.0729191806168
98.0443751893862
98.0901275509893
98.1143547655631
98.1049431717395
98.0574665491689
97.9977210892968
97.9650377073557
97.9903124663365
98.0459552808936
98.0978194977599
98.1074150981675
98.0796525206705
98.0636691355329
98.0570624712561
98.0658402221155
98.0790154232381
98.0815812733548
98.0449603984929
98.0111359151343
98.0507982392442
98.0712905530787
98.0290346002305
98.020515261125
98.0584179902473
98.0719055212436
98.0339516123489
97.9864778571726
97.964341486765
97.9372165208951
97.9516656151435
97.9415117397693
97.9470057098291
97.9834389107423
97.9793950562914
97.9115874218435
97.8717505011046
97.8970636469463
97.9145055693684
97.9471331497205
97.9456829079994
97.9229390239965
97.9247901612477
97.9295616814344
97.8978343754198
97.8743836367362
97.8944196049749
97.8772183812366
97.8259718907409
97.8053169977321
97.7729504317897
97.7598096467758
97.765144299915
97.7433497227663
97.6780436563041
97.6698017902023
97.6485409751654
97.7453340926237
97.776169324298
97.7363897354647
97.7367170539012
97.6981550432409
97.6636055219064
97.6629978549527
97.6288246603985
97.6036529917467
97.5906529409749
97.5730312509629
97.5511596469012
97.5117288081047
97.4534737330713
97.4462891703541
97.4835399722745
97.5027970519407
97.4338746051945
97.3935751712829
97.4256223747814
97.4257157359093
97.4095243116811
97.4173873680288
97.4368946296554
97.4151245771939
97.3990227026001
97.3845870952013
97.3921036120001
97.3987584950126
97.4001647884965
97.4098808399951
97.3838297738156
97.3591230976926
97.3205663627927
97.3137719550833
97.3715857982074
97.3908485926288
97.3993897972499
97.4030879902686
97.4001577995903
97.4093136450784
97.4488123025439
97.4266194853316
97.3848256297268
97.4144754563461
97.4247667597839
97.4381967532813
97.4867846869314
97.5028836028286
97.4879370080992
97.4683844370808
97.4832998734812
97.4387774676651
97.3624520478574
97.3209103837709
97.3585678936099
97.4503826534964
97.4975572380497
97.5057736542129
97.4662180410887
97.4406389780635
97.3885969764567
97.385909103043
97.3882986986283
97.3952198343528
97.3503716781385
97.3052152271907
97.2986019638464
97.3524420247426
97.4017159002301
97.3830539706879
97.3140862647593
97.316419377637
97.2953152028103
97.2020032006574
97.1469692874931
97.1767202022331
97.2758733026847
97.2565906134808
97.1583110042596
97.1471660311012
97.1881314712334
97.2221640846997
97.1660812586992
97.1494419432472
97.084993592978
96.9820417650892
96.948171197964
96.9711736295178
97.0100980989731
96.9741078674184
96.8638064221813
96.8264318488112
96.8546489667601
96.8786666636691
96.856126457515
96.7970182251993
96.6705829332066
96.5962265241192
96.5270983515086
96.5081169422743
96.469886499748
96.4276617902327
96.4465290703006
96.4342570425276
96.369190792662
96.2530734328426
96.2063561305023
96.2073644985436
96.0733671055461
95.895713444722
95.8761253798386
95.8574840885554
95.8145247459776
95.6606018388522
95.4172965229425
95.1444209120652
95.0525748968741
95.1326863576643
95.0898501042536
94.8846481109277
94.7414314905893
94.6570361843359
94.5448206580671
94.3777322379288
94.1921174912497
93.9863017576639
93.7433024657793
93.5616402148617
93.420625841326
93.2659153701742
93.0643903266207
92.7993623338822
92.4656770309725
92.245085014668
92.3158881524428
92.2368689109143
92.1021868114473
92.0472690911371
91.9988618243671
91.8734705390084
91.6633670194529
91.4374674279534
91.2797877221023
91.1375710462109
90.8793140069838
90.6670146954276
90.5570066325745
90.4527672580829
90.482778218304
90.4676689870955
90.2207160489117
89.6165070764332
89.4102260448177
90.0835512127454
90.3490653488247
90.0973816458601
89.6481435278901
89.7982033820932
90.2495444847959
90.3486903527717
90.2887495968109
90.1764047286614
90.0340303576044
89.9344722661557
89.859728948545
89.8872424549067
89.9456930321639
89.758888854645
89.2880568001751
88.9291242612063
89.4296741390772
90.0642424301382
90.1082444634581
89.9661317245712
89.9906411853114
90.0515723287354
90.0029033766696
89.7784209420733
89.3421707393858
89.2782275490627
89.5836018288087
89.6096193545449
89.3627973698528
89.2281304293938
89.0220349611956
88.8088349887554
88.9145524984596
89.0507019595134
88.9975037389325
88.8254104507404
88.622570120222
88.2729638822293
87.9920080527873
87.9676885311803
87.9684678386254
87.8612843244278
87.6848485540004
87.5156254067308
87.340089775386
87.1228674271682
86.7186154909813
86.1025890867578
85.3270049143672
85.3708563764344
86.5113351991194
86.8032594691561
86.605961258009
86.1617399352824
85.7438491093987
85.4181877725921
85.3272233040633
85.6601233676134
85.7587952256477
85.6329020926908
85.4627698683632
85.314543746518
85.1605998942502
85.0352880913867
84.7672696421705
84.5090853825896
84.2363835605887
83.7399529139692
84.0171629904167
84.7078490780202
84.8486857745218
84.7165663828649
84.5436782947839
84.3824764806125
84.1488937895729
83.7850618533298
83.6537806106905
83.6604030175419
83.5451997964923
83.1542395171502
82.6687974239474
82.5593539343486
82.5264501512741
82.332873449338
82.0660391136053
81.8182162683062
81.4081897055784
80.7828379872591
80.5865222043162
80.6757948154952
80.3441512684354
79.7106745081458
78.9794199610514
78.1992535434321
77.302848916327
76.3706666980524
75.4818408442142
74.59945635643
73.7410361237447
72.9556143675053
72.2174564301228
71.5139548360214
70.8803385024694
70.3750474949633
69.9094683948982
69.5278129556404
69.1933648974907
68.9400450643677
68.7201951404133
68.5445245213827
68.4509958950239
68.4207576537678
68.5491021002288
68.8128351356587
69.0919622420198
69.4910523510337
69.9981238738126
70.6186492656311
71.2848011001233
71.9342590191105
72.5220464330093
73.0387231204885
73.4857167132332
73.8846025036987
74.2362761896417
74.621159395107
75.0329783914285
75.4438810656119
75.8444482741089
76.1486527892565
75.8493582850214
75.4946209621485
77.0804063236828
78.6129950307898
79.3056469953526
79.6577124356404
79.8355248907148
79.5473952244791
79.0614010164805
79.3229560272488
79.6262668845093
79.4305269519189
78.8670901870631
78.1981422680781
77.7226554155731
77.200232186585
76.4711584895825
75.4383202547707
74.0977914282104
72.9561431086587
72.3279539764354
72.9761855322793
73.4454341417863
72.7766269070462
71.6643978383234
71.2197731559898
71.1160140185155
70.6546312549365
69.8276675835583
69.0109145027728
69.0093424122792
69.1510418438318
68.9854647383695
68.4299663311766
67.6364484048671
67.5895526686437
67.7539093244692
67.2782982561691
67.1765998952704
67.2664504098067
66.569932106254
67.3324001011861
69.8843148775975
70.7362873465489
70.6078760982042
70.2013543000784
69.3191760147656
69.0449292436563
70.0774524061276
70.9032858639388
71.5294636930807
71.705923572286
71.5421748354174
71.5343728437309
71.8876269827204
71.87677135637
72.3874374641949
73.3816344831534
73.3817837218533
72.938087745936
72.6202179926862
73.9073054147382
75.7970139768916
76.1487528706529
75.488251474385
75.7262650087461
76.6428030941518
77.3222907827112
77.7139179805018
77.5085805958785
77.5594145829119
77.9161225932384
77.7648298201875
77.5677417389616
77.1520239045838
76.3614815999766
76.0300293034585
78.0055652500245
80.1171528807548
80.735995927641
80.71958466745
80.6673517948158
80.803888916819
80.7006284708359
80.4508132928305
80.963643376668
81.0305921754551
80.9102817538911
81.5512752836758
81.8398154807483
81.7247866674051
81.589549617509
81.2946827546188
81.0134829809125
81.6864072730842
83.2482315676077
84.1768323434381
85.1451528704911
86.2122640778418
86.9069113800728
87.2978298566323
87.5596820640381
87.6554563939679
87.7357272852519
87.9377659082987
88.1103602478717
88.2150611716211
88.1685835176678
87.9028019696405
88.0647828258198
88.2188193495655
88.0178211338996
87.8074710883433
87.9234568073417
88.5974712010504
88.9291009104883
88.9855378611507
88.9422101218002
88.8995762762878
88.7898133891031
88.470693021194
88.4399672636332
88.7244428894826
88.8387168557861
88.8148196846348
88.6914779015218
88.4100381651767
88.0207130481557
87.6143515923975
87.1642897879317
87.1397824163244
87.0480702263695
86.6287896359719
85.8806223673844
84.9633605970412
83.9811552326333
82.9115205840507
81.7593399426949
80.5854486553066
79.6864477282469
79.283587227734
79.0746416254151
78.9662074571303
78.8619161857182
78.6845091766356
78.3700781109261
77.9164795450647
77.3384722521429
76.6409305121931
75.7956990415962
74.7202126716551
73.6995963755238
73.0968293579112
72.2195908559262
71.0485676720033
69.7768314267804
68.5347751767739
67.2170521525611
65.8516274084414
64.5779652847602
63.2801644848601
61.8553357222908
60.3746529477143
58.878198403397
57.38135500147
56.0346337462188
54.8514738885527
53.5447307299693
52.1426640473578
50.5739669284794
49.7808227504041
49.5106996547903
48.9610305626091
48.359283934428
47.801043552725
47.27163955669
46.7727309672591
46.3389062348802
46.0878144245705
46.0160425062399
46.0163871586523
46.0897096903287
46.1938853607987
46.3195805294851
46.1652186134306
46.2032349281582
47.0664120059726
47.769412383193
48.1941118866144
48.562175932758
48.577826966863
48.4486404307681
49.3700264555235
50.6593906026851
51.4186899500398
51.5493987330339
51.8439008786729
53.3870073621457
54.7564981999822
55.2879626457321
55.6305806910942
55.9890792892728
56.2440504140452
55.9115263937713
55.9398938057215
57.1084561212817
58.0582476177013
58.4967770633539
58.7396037350935
58.9389061177877
59.1517658550419
59.3634041397653
59.5648384356051
59.8137735482618
60.1450113566342
60.6033191389041
60.7932109691094
60.6924216502173
60.7347836958533
61.4959673894728
62.4451083567666
62.9144603865321
63.1571194421304
63.2027654982463
63.2901438686046
63.698238698087
64.1067490316156
64.3990738490927
64.6422031735842
64.4204838751021
64.2458780384507
64.9623567283801
65.5752318729445
66.2706152193953
66.7618500865375
66.9383289844874
67.105841466539
67.2879598166096
67.3482945526988
67.469234423807
67.7665507236066
68.0040569073893
68.1808804581081
68.3302086996309
68.4347927682044
68.5918458734812
68.8420318831138
69.0970868318714
69.355440032669
69.6408904993921
69.9560332929179
70.321383583741
70.7239185521845
71.0014678973444
71.0190006520394
71.2862642217976
71.9645535553903
72.8397187480479
73.4670337923704
74.0595694568378
74.6253914223335
74.9869934579705
75.2933693373759
75.6103201366024
75.9476744168287
76.2712755828252
76.6396410333555
77.0233603943885
77.3918870315356
77.7389049952615
78.0901026375492
78.4182686926804
78.7168242680637
79.008753691646
79.2941496641725
79.5083076003408
79.666839031058
79.7764218695436
79.998472572191
80.2014682980199
80.3570473336901
80.5001738324189
80.5604396159124
80.5967352950443
80.6210023037686
80.703073206162
80.7251315921269
80.613286347797
80.3748528238893
80.1019459208114
79.8876875039112
79.7408295638854
79.7028494861579
79.8112873612657
80.0401719825112
80.3554783299651
80.7269419013924
81.0978461473677
81.4581473926428
81.7823549427229
82.0498491910941
82.2409138024758
82.41302838537
82.5506774981995
82.6292393706073
82.6799194064136
82.7093390646105
82.6950568179264
82.6546639935735
82.6264050594182
82.569122180038
82.5104224939561
82.5041588955093
82.4836047874909
82.4303048354393
82.3768421312485
82.327626749402
82.2749110197443
82.2275877871288
82.1978742093736
82.1994682474213
82.1981551784834
82.2069890002536
82.2328141592557
82.268743955169
82.3148851792285
82.3642667264921
82.4019977625583
82.4582238274063
82.5654128841001
82.6672365501796
82.7850818417863
82.9004358113363
82.9982632555247
83.0780390479509
83.1571732579086
83.2394817120177
83.3196468742616
83.3969937495795
83.4517282362268
83.477689044053
83.5415761460808
83.6150080230768
83.6590014800552
83.6970292196625
83.7234886443485
83.7470186347964
83.7649393400766
83.7918314902542
83.8370003987867
83.8965300822169
83.9710749418536
84.0689043067884
84.1876501551608
84.3257254805162
84.4643276333088
84.6083595898076
84.7518258891228
84.9105571804341
85.0893506580708
85.2685045564301
85.4370934319957
85.5965950493633
85.7533366359158
85.9146567613501
86.0665687781463
86.2122099173385
86.3627572906718
86.5141879539718
86.6489332205355
86.7796866159862
86.9111475417637
87.0232694716748
87.0968225837295
87.1384139686131
87.1448062232972
87.0871325494889
86.9733946068158
86.837266432808
86.7237541811302
86.6687331484178
86.7010714927103
86.8269250520982
87.022412086291
87.2652998811143
87.5143345582089
87.7364102116035
87.9140218598876
88.0491920633573
88.1617215135692
88.2653275150649
88.3709353883887
88.4943842088336
88.6566735248499
88.8364369617128
89.0224991915848
89.2078515131702
89.3840923094539
89.5474171970499
89.6896035205728
89.8186373237978
89.9408445995245
90.0371601629095
90.1097949516792
90.1686759574518
90.2245428169455
90.2671001453592
90.3013938985948
90.3209831012862
90.3120574348588
90.2630113716857
90.1762277606588
90.0426216343133
89.8519503816053
89.5997393244191
89.2890205053758
88.9427561660933
88.5867970311202
88.221410220124
87.8338362407706
87.4377513107557
87.0257076104727
86.5632425420031
86.0562302102853
85.5389361451254
85.0466405046137
84.6153458955366
84.2762634318227
84.0631306400465
84.0053550232392
84.1141477560863
84.3834611136404
84.7976040262544
85.3424545803901
85.9876110446439
86.6530461688136
87.2923789913171
87.8648702679157
88.3395771846637
88.7228791438183
89.0230005785803
89.2368280483965
89.3714899389172
89.4460987426501
89.4718084278249
89.4351270181648
89.342515879255
89.2128207632166
89.0538658018349
88.8732719084565
88.6779727067709
88.4843818858476
88.3145798065477
88.1655695755866
88.037037855544
87.9164483590443
87.7900397957524
87.6639811834857
87.5430049221426
87.4255177697513
87.3299227048297
87.2546635787238
87.2138710762189
87.2193851868792
87.2619181869946
87.3316833076096
87.4269809530236
87.538972836593
87.6810801914557
87.8489400399621
88.0268827586813
88.22746203041
88.45599300321
88.6935962146913
88.9245484356902
89.1558516912411
89.371336789385
89.5705397278533
89.7596006778812
89.9285216743111
90.0701301885753
90.1890478321802
90.288099214538
90.343153040948
90.3742807899704
90.3901043201062
90.3912536698102
90.3850059415332
90.3726204838549
90.3480208855206
90.3284956445789
90.3224414020259
90.3212896385647
90.3188300099793
90.3097200729403
90.295177336646
90.2780961957377
90.2577410030794
90.2180168468145
90.1558080017822
90.0843360561592
89.9943703551467
89.8836336932224
89.7456626105756
89.5848540320484
89.4202690058254
89.2572497650671
89.0861127843839
88.9234787331994
88.7949754738401
88.7108736824123
88.670327218785
88.6795115393091
88.7434849019464
88.8693172713371
89.0172949071708
89.1786794226955
89.3477759683124
89.5008148735471
89.6307329442668
89.7237089213099
89.7723942921672
89.799475552683
89.7872602665121
89.7379849862476
89.6830284537915
89.6240739821808
89.5448266367474
89.4758189668281
89.4301271556849
89.384818453476
89.3358080839566
89.3133053003667
89.306898707471
89.2908174377829
89.2568258323541
89.2232674772195
89.1874673854841
89.1138193689663
88.9987811812321
88.8431209205587
88.6376380906103
88.4013821448811
88.1744292282839
88.0021261103605
87.9431249272979
88.0405777519243
88.2747631501575
88.609382062528
88.9872159994342
89.3456981665429
89.6611413866603
89.9248163932698
90.1354257875576
90.2956999244655
90.4037481504238
90.4858441641522
90.545832114945
90.5875294382158
90.6172503073246
90.6439141466911
90.6459271596157
90.6258530616263
90.6079356097368
90.5990617214953
90.582973008256
90.5514052199371
90.5219540576277
90.5095039823042
90.4915930243119
90.4620915652223
90.451413243642
90.4700599007067
90.4880618370627
90.4985122573828
90.5170746644621
90.5481755024992
90.5892476464295
90.6386319928648
90.6811934125632
90.719983486428
90.7574068916073
90.7896249832015
90.8233660552551
90.8368944470813
90.8066574161389
90.7315180258076
90.5849670205665
90.3270755732114
89.9226510959607
89.3335243871452
88.5709892962037
87.7370085142057
87.0014135995303
86.4644012034114
86.0542947185975
85.616872846066
85.0898428026645
84.5616548867465
84.1975848489782
84.1705801581856
84.521760186114
85.155873030063
85.9252090094726
86.6865846218388
87.3456899831743
87.8728380162763
88.2957949551948
88.6361651766629
88.8999246006076
89.0822211263098
89.2106071150683
89.3089177499665
89.3573792185829
89.357509287784
89.3071766789297
89.1940352517186
89.0522919910811
88.9457765977327
88.8940682457959
88.8551389633902
88.7501246595788
88.5316503145072
88.206356862513
87.8178964631178
87.4269807712585
87.1301126298009
86.9783803966812
86.9688860028928
87.076085130724
87.2262452163211
87.3552119729127
87.4244136353011
87.4006416560943
87.2628448637262
86.996819525712
86.6423972794031
86.2590684716138
85.9273210668479
85.725820466952
85.7037108395815
85.8613277451891
86.133695033558
86.4327120281198
86.7192785390219
86.9554559856398
87.1132900693549
87.1635666274948
87.0658009313845
86.8004395809722
86.3391933765416
85.6817805318936
84.8692488990623
83.9963011389614
83.1945255447928
82.5644016186878
82.1546558699452
81.9571232471523
81.951353871767
82.1418072578195
82.5224072077043
83.0441136635363
83.6765794253372
84.3952048145328
85.1309282242849
85.8040222057852
86.3866935159245
86.891877871492
87.2997512248123
87.5846874938705
87.8100351351479
87.9993470260001
88.1191535101371
88.1992583252392
88.2587577063456
88.2858280071649
88.2989371998772
88.2763760731419
88.2370065194349
88.1885269654459
88.1248654982565
88.0556033789671
87.9883501374984
87.9268782190679
87.8663365413484
87.8058670909612
87.7499266814858
87.6974194762493
87.6649611961628
87.6686794869344
87.6896440871114
87.6783122901519
87.6777699668553
87.7260026015272
87.7727058084356
87.7890314492435
87.7880769060076
87.7964331785187
87.8202654959381
87.8133053458757
87.789356130619
87.7841325318726
87.7779247386662
87.7702414916396
87.7798584086724
87.7770484544291
87.7496132258851
87.7290544929371
87.7268223969675
87.7094893293704
87.6800593794421
87.6679698556205
87.6419560736368
87.6026885465078
87.5816515546679
87.5696445178187
87.5528383867479
87.5260890097215
87.508367135871
87.4786725549053
87.4451383531421
87.4370976512769
87.4347859559505
87.404780640524
87.3763414162504
87.3703151933766
87.3579029438765
87.325046903472
87.2880584619046
87.2389834720919
87.1881548718697
87.146288166644
87.09933943743
87.031939164542
86.9632144956431
86.870472415554
86.7559894059406
86.6494946092207
86.5472610061414
86.4307914645767
86.3097680774603
86.1957188932484
86.0730796655359
85.9033376854318
85.6833379574396
85.406872606568
85.1551838812767
85.0153596291751
84.9145374752183
84.7879255622867
84.628880060803
84.3907897528832
84.1000786696378
83.7899671318069
83.4393193604394
83.060835505764
82.6907405138141
82.3330940124145
82.0033490907349
81.725826023476
81.5478467211173
81.4820845522754
81.525841855843
81.698597411808
81.9838057022506
82.3041950537677
82.6023301872547
82.8738991329596
83.1233693309572
83.3513304665733
83.5324052490138
83.6865270797994
83.8254842130558
83.9073827329837
83.9299784826103
83.9244566293305
83.8863379293001
83.8049344899941
83.7154190711642
83.5933820744985
83.4638270701656
83.3426347606185
83.1780115775841
82.9605975892444
82.7172889453118
82.4551453409602
82.1627511151502
81.8396737303755
81.5074341709815
81.2011120358263
80.9121356135659
80.6395317505644
80.4486245680943
80.3405201371729
80.3059597124563
80.2893017498371
80.2661207695608
80.2907720614317
80.3328872853493
80.3384849942639
80.341585250507
80.3351058992089
80.2892444617426
80.1674964506445
79.9860241173693
79.7885730548359
79.5558999180468
79.292758882656
79.0369424695534
78.7516528320557
78.5144564438546
78.3624057881855
78.2607153980201
78.1723076242357
78.0764922528882
77.9851942642967
77.8678550252953
77.6899683689576
77.4741140217494
77.2318622049139
76.9602650912291
76.7131602287735
76.4888598553897
76.220846550259
75.9818497677466
75.7503789921961
75.4195377769245
74.967498513883
74.4470808695398
73.878140003525
73.282906505476
72.6381906141671
72.0100900989541
71.4873304842662
71.1076915067307
70.878532352783
70.8579701633805
71.0091998935305
71.1972997108099
71.4376613739679
71.7840823633155
72.1316273915085
72.4212084113438
72.6573048433345
72.8192809283622
72.9133985927386
72.9623254766808
72.933260423639
72.8526758575812
72.7870294730327
72.7078829195714
72.5935397511319
72.5274852811635
72.4752254400766
72.3831306520044
72.2429278009227
71.9930067973347
71.6798554292827
71.3811357575782
71.0099188537118
70.5796016674164
70.1528630423525
69.7646728477238
69.4771743589714
69.2808185590393
69.136059568527
69.0707955456344
69.1100010006442
69.2326024230744
69.3485223476858
69.5209728378711
69.8096354214133
70.1693669205439
70.5568766607812
70.9891383931996
71.4527603169258
71.917661077527
72.3651637591012
72.8041048499813
73.2010756197158
73.5268963505456
73.831466908581
74.0524309071021
74.1412451415176
74.2052933874352
74.2762061215808
74.3324745842388
74.3732756102811
74.3756577438211
74.3071442048578
74.2409696922343
74.1847792179134
74.0521230147121
73.8937826714677
73.7171748577317
73.4750218102453
73.2092793714675
72.9313010079727
72.6715247317897
72.386217791831
72.0828914961961
71.7990432299241
71.467099621871
70.9979312596312
70.4159553694196
69.7626373560745
69.0525764141374
68.2627435058177
67.3808852694775
66.4418408504828
65.4036336623177
64.1931669560457
62.9040862407098
61.5723283971249
60.1858971386842
58.8181153965297
57.4431334745385
56.0669647118693
54.8218202658213
53.680923861467
52.6339646237245
51.8182695824768
51.2737421445696
50.9620634839497
50.89360695121
51.0469030350305
51.4996678226595
52.1690676959215
52.9164668958527
53.8081203857858
54.7581257352164
55.69043568444
56.6201508852404
57.5060203018821
58.3927450340241
59.2126532357811
59.8805217767984
60.4777237866126
61.0724490395206
61.6193042421531
61.977063008773
62.2197018474752
62.509736693952
62.6155602519799
62.5930468875514
62.6291341135335
62.5564196704128
62.3371909994039
62.0691170615418
61.6765314235183
61.1090258221541
60.480003564132
59.9032345630914
59.4524016069458
59.1480965439561
58.903286643778
58.7293136269868
58.8306638657289
59.0787806039233
59.2480596922568
59.4209730560763
59.4778196045556
59.5100693591439
59.4711682734575
59.2378953065529
58.9072273972305
58.4560988786961
57.8868438960602
57.3812192832867
56.8794910526643
56.20399483313
55.5455385852704
54.8327666508578
54.1325499357587
53.4059635022532
52.274403355685
50.8603031756568
51.0833631137551
52.1902098832425
51.7062305925217
50.6703128002885
50.0314615710172
49.6944733016642
49.2155517725829
48.5288016280987
47.974560251008
47.7186614718482
47.5375305783505
47.0672501169909
46.6357830873581
46.4218608040914
46.0510309594598
45.5348510752616
45.2943735504271
45.2119074047006
44.9215540256688
44.3029593805525
