3596
4000.36533379555
650.420452594757
1
128
2
99.7437126970007
99.7739495537979
99.7219864825307
99.6792157032058
99.6991554726042
99.7084193006443
99.7263698504669
99.7237449016567
99.7304098948808
99.7110166427288
99.7393293342186
99.7812424045027
99.7679889367571
99.7129541498769
99.667522853593
99.6693026375361
99.7044005544745
99.6966520385645
99.6845769998946
99.6962795681102
99.7278739155664
99.7792790583098
99.7867634665351
99.708474178061
99.6795389853972
99.7076871387054
99.670581729356
99.6349774355999
99.6857004968177
99.7154148229492
99.7204806783124
99.7087340389948
99.6923539642939
99.6764722061976
99.6683851593148
99.696567047662
99.7262827610484
99.7164191840479
99.6905708207611
99.7287105806389
99.7703022136166
99.7500223966785
99.7248059351314
99.6958290362189
99.7269895635849
99.7685028271891
99.7397890667739
99.7052433043808
99.7183591050289
99.7467542125468
99.7411709185819
99.7411217437429
99.7354404846751
99.7089195502286
99.7088366741888
99.6869437986637
99.6791845888833
99.7224596732929
99.7548947991694
99.7547889116721
99.7467487028344
99.753714384944
99.7619714381091
99.7400811791974
99.7695186260354
99.7854346428722
99.7768644330962
99.8132760216771
99.8493313576778
99.7865497960691
99.7347758098477
99.766434925253
99.7795773709568
99.7539398446865
99.7411486385358
99.742737908313
99.7835977920639
99.7829444743206
99.7576205655258
99.7346610109439
99.7195574641965
99.7539967179057
99.7934775988554
99.7847280313161
99.8283700479398
99.844894067204
99.7780571759445
99.7283411551349
99.7348549314579
99.7786620588742
99.8273692440062
99.8404958937111
99.8064913197673
99.7397221390404
99.6962358868883
99.7153939216367
99.8222507120452
99.8682317438773
99.8333214036322
99.8329692449166
99.8576205747167
99.8811058230601
99.7884121934406
99.7606705553011
99.8148970238079
99.8041782022116
99.7789136531508
99.7453662101608
99.7678337117116
99.810453993469
99.8266169271649
99.8027280339715
99.8180219037723
99.7866839207093
99.7495406113732
99.7734114208094
99.7930243443178
99.8198701761696
99.8723315449637
99.8566488730942
99.7805756958874
99.7453859224584
99.7295787186354
99.7644677193599
99.8511751115087
99.8559310455438
99.8152215327241
99.831638040572
99.8536726902578
99.8639554390229
99.9017163491013
99.9243074792121
99.8736539667635
99.8318076527854
99.846030695089
99.9089659738541
99.8857140952277
99.786628439959
99.7870539459756
99.8465605796331
99.8991715442497
99.9029383445651
99.8523605212571
99.8241715333054
99.8970701820199
99.9088287427934
99.7973323999158
99.7653146116029
99.8401408931622
99.8904264665356
99.8338673580132
99.8389082713074
100.015200905573
100.087635906131
99.9405824681361
99.8393481621963
99.804979553788
99.8499152974609
99.8137344819604
99.7813830902773
99.7783248135851
99.8149954524548
99.8896372318139
99.9538910463381
99.9609425047126
99.8727835637177
99.9166489286679
99.9885006199356
99.9150875373468
99.9012698031603
99.9689976132627
99.8934286624491
99.9055872191935
99.9702320030247
99.9085262540011
99.8434722689709
99.8572875699756
99.8789270791624
99.8261316996925
99.7752289511658
99.7686464403956
99.8386351799899
99.8836891883458
99.8431778382016
99.8346795371438
99.8341736952535
99.8505418602552
99.9277136754328
99.9793758501779
99.917805471436
99.8456417993652
99.880039218585
99.9020933370016
99.8971668701749
99.8553880757588
99.8132930406114
99.8110187190199
99.7967324667923
99.8093401955533
99.8526374807409
99.8833090384346
99.8835338113545
99.9256616751542
99.9779197945122
99.933643475143
99.880000644487
99.8559301578645
99.8925813394847
100.000196725289
100.061416245743
99.9928848751678
99.8782643222634
99.8329374412869
99.8011109860753
99.8299765393637
99.8463810786591
99.8008591886323
99.7925591787006
99.8241781894701
99.8064117000305
99.8135266931674
99.8399639782703
99.8327034324028
99.8157117005288
99.8203858714216
99.8467677703658
99.8625748487891
99.8411695616325
99.8170100406904
99.7974434992931
99.7999234024488
99.8254394571357
99.8787843428756
99.9027048228849
99.8991037950826
99.8903122474078
99.849045513051
99.8450850313979
99.8696465791569
99.8768891631931
99.882008076076
99.8691849508781
99.8800931334339
99.922566740239
99.9218849843451
99.8928791766512
99.833984339432
99.8027976426638
99.7734831426113
99.7642870109548
99.8406597156169
99.8622162838489
99.848965700718
99.8575610591525
99.8953503038045
99.8678543643043
99.8403341136828
99.8522721668476
99.835582452571
99.8127773322074
99.8662836208469
99.9636983969101
100.071611265387
100.051296019121
100.072012715731
100.121114677497
100.016147959626
99.9302980742157
99.9211704907189
99.9868827023195
100.180588996348
100.182573663345
99.9501975659049
99.883732168453
99.8753259029497
99.7985909387264
99.8793807451219
99.9457011954147
99.9189541513272
99.9390311347263
99.9573524302424
99.9294498907371
99.8797873777472
99.8942297956202
99.872893451964
99.7700495050472
99.7655729314097
99.8060540136683
99.8234446072028
99.8490525716175
99.9094293398072
99.9280607917755
99.9261790119412
99.8831873887085
99.8612694000974
99.8134793098096
99.7922884649694
99.786737934818
99.7882045440358
99.7983671564902
99.8474876090521
99.8832218794055
99.9013701248126
99.8761191626082
99.9007277111561
99.936864391156
99.85256626515
99.8319789870308
99.8945788060355
99.8088942706129
99.7617643828724
99.7921332095001
99.797106019831
99.7644057901619
99.7624334108711
99.7884544636007
99.8510834433599
99.8414678972284
99.7853372202718
99.7944073999297
99.7922221210496
99.7364323973165
99.699000681294
99.6989653342109
99.6861130272031
99.7190105429033
99.8101404318871
99.8566533880999
99.8401166837173
99.761433546285
99.7775028732377
99.7639295179825
99.6750810069873
99.622362067341
99.5824231022075
99.571272972751
99.5876441170888
99.6463790151479
99.6459298261525
99.6070130873215
99.6477182329106
99.668264500137
99.6200517100028
99.6002013570553
99.6670798601822
99.6979736492616
99.4874978443766
99.3403283252913
99.4018502784062
99.4713047030774
99.5081770898571
99.4535945602577
99.4164943362957
99.3114656757971
99.2811086319158
99.2794629933814
99.2773355950629
99.2658693028156
99.2617209127839
99.278030726958
99.2728920185636
99.2604900861681
99.2867722328713
99.290734775555
99.2771175793639
99.2750453644179
99.1809024169411
99.080400726587
99.1170592996633
99.1538147838061
99.1498695485552
99.1391531787788
99.1954517173098
99.1732156770808
99.017859390649
98.9642679775999
98.8960081376498
98.8893304677211
98.9241972282487
98.8827448216629
98.8341174424522
98.7916452499845
98.756156931331
98.7154687558622
98.6736299275772
98.6385886454425
98.6617516501812
98.7163727688713
98.7014751406439
98.6546788192934
98.6015998205689
98.5680334718494
98.5886301884731
98.5632051569719
98.5084948368032
98.4131618289662
98.4093392612058
98.3814518207803
98.2972840784492
98.2291096738949
98.2222949791225
98.1943113385565
98.1674004482956
98.1288316410741
98.1379899358688
98.0870451745755
98.0043886625213
97.9660547499749
97.9168998958875
97.8850134770694
97.8896784867258
97.850759073808
97.8317743430832
97.7638517166447
97.7078160290689
97.7510452338205
97.7477016023657
97.5584424660189
97.5089547930666
97.4933044586426
97.404923210331
97.3306350811013
97.324831842513
97.2638726001117
97.2030921164212
97.2015009704586
97.1576422829967
97.0603590308514
96.9944835896068
96.9721028933909
96.9844629510109
96.9470417395181
96.8142064247628
96.7081369826682
96.6783533048294
96.6553608926963
96.6004039800522
96.5311724226171
96.5335998998096
96.424027571154
96.3511152771454
96.245083083857
96.1367762112029
96.10798294527
96.0965932584982
96.0134015770696
95.9115338410084
95.8670293456741
95.8831904939556
95.8593966994069
95.7483434669903
95.6448213423209
95.5944858753967
95.527995522327
95.4580638043917
95.3955792496024
95.3264509380114
95.2788408094391
95.2525580610644
95.2393208567086
95.2111089542335
95.0221592255964
94.8710186428275
94.8491293276736
94.8625343598458
94.7819156636325
94.7134103549911
94.6944336855617
94.6863613622009
94.6275987203479
94.6103401747094
94.663631440306
94.648454591168
94.5769250955825
94.5516255271486
94.4969989442302
94.3918806265964
94.3394976504931
94.3706028369244
94.3584851592016
94.2661264382664
94.2041150401203
94.2299556507527
94.2087774944137
94.096106287363
93.9906484979601
93.9966346196126
94.0051243477111
93.9941789145821
94.0190740767756
94.0274550158373
94.0137198389574
94.0162182767276
93.9935789597467
93.9765044283588
93.9148577471934
93.8609694742412
93.8441942047234
93.8502613890687
93.8674035630053
93.8401886569147
93.784242505974
93.7847731877869
93.710147962147
93.6905245989133
93.7708353081776
93.8049813771689
93.7070897469732
93.633872147335
93.6504997161595
93.7517254378957
93.8120187200719
93.7719650057425
93.7316377484932
93.7042834477054
93.6288748536982
93.6106908816242
93.6507239373955
93.6736564961091
93.6184206344325
93.572121762335
93.5646293485064
93.561978117406
93.5559101677298
93.5034972898709
93.467665378115
93.512614493933
93.5636475044368
93.5773834547915
93.5292052607453
93.4488633130683
93.3979988590879
93.4220621176225
93.404271731987
93.3994143031026
93.3507197062348
93.3327238341008
93.3512188202674
93.3302262212196
93.3302653568226
93.3387637539091
93.3113391679689
93.3201978873988
93.2866405341627
93.2399708263611
93.2271699088769
93.2307687694242
93.1805489726301
93.1635867232428
93.1549432482432
93.1256609272826
93.1210583316414
93.1009580174333
93.0720591122675
93.0975405012902
93.1296767154721
93.1665919664369
93.1700167246103
93.1386883368425
93.1104811226077
93.07257698455
93.0870669015148
93.1300519597808
93.0678756565132
93.0428194102948
93.1029061850646
93.1383113377756
93.1156882099176
93.0969625543457
93.0862411811377
93.0601090103882
93.0820409983952
93.1421629412821
93.1262950866511
93.0921406920669
93.0731930629872
93.0935919933807
93.1284020541277
93.1748481059017
93.2202238323043
93.2391682980849
93.2154389084935
93.2531230827018
93.2705683033303
93.2642427729093
93.2693484932949
93.2847845259886
93.303142670858
93.346100999834
93.3320495525222
93.3204599450556
93.3488883928902
93.3573730511872
93.3563650826733
93.4258548375993
93.4750075562488
93.4829309159178
93.5196007102917
93.5191577798933
93.4783476603114
93.4473303875507
93.4765877145171
93.5476711030962
93.5891029313607
93.664533410367
93.7223523069001
93.7094312217213
93.7458166739218
93.7787791544721
93.7309912516901
93.7415088040204
93.818069495599
93.8979163437576
93.9033992317018
93.9185985596439
94.005950741339
94.054380444474
94.0330743323698
93.9979736013718
93.9576812325022
94.0002084522317
94.0703667968576
94.1151994150006
94.1646829447587
94.2055519926207
94.2119929394414
94.2419017317908
94.2449744354196
94.2631629175449
94.2863468491067
94.3223599607432
94.36621856802
94.4137169683178
94.4411602488486
94.4916040812598
94.4826848558618
94.4766438782279
94.5105732817181
94.508559851639
94.5109721957691
94.6126817986887
94.7169258474051
94.7968212937646
94.8134062924873
94.8380041912167
94.8591579111037
94.8751966954353
94.9287983628158
94.9472533491877
94.9291739159441
95.0017301270336
95.1355570018955
95.1872853676354
95.207680491873
95.2638791399173
95.2729614978303
95.2646852377008
95.3005112112471
95.3495021156631
95.3657028171911
95.3467802830572
95.2981339132788
95.3174341357185
95.3973905315931
95.425641328812
95.4252664726623
95.4784078842378
95.5114967857293
95.5439174976925
95.5240707122386
95.4839263086022
95.4315850246424
95.4007441092332
95.4200395357981
95.4686186536784
95.5598940896298
95.7108909580302
95.8679796600969
95.9898090595385
96.0471558097448
96.0618152785064
95.9828223719927
95.9192302009483
95.9314593083135
95.9745455011877
96.0352392372867
96.0405909575864
95.9876281134731
95.9627011920901
95.9306917819619
95.8732843132763
95.7631013326871
95.6343449890871
95.5511569447012
95.66946028852
95.9099040890199
96.0708015395573
96.0776506806257
96.0434239374557
95.9700639433824
95.8468868760573
95.7176190596275
95.7361997359885
95.8532977575922
95.8808270187056
95.7915225941552
95.7731743241197
95.8991661425428
96.0605508815842
96.1927390768557
96.3088128715066
96.3126789235226
96.21817170523
96.1682368992678
96.1420420009967
96.1075493714854
96.0885103630381
96.0447166389465
95.9413168159298
95.816584480599
95.7907990911833
95.9701866488654
96.2063160762996
96.2844055221944
96.3601875833825
96.4308090934665
96.4667011873997
96.4723405376146
96.4814830414414
96.4752658121436
96.4168419707365
96.3805164328267
96.3767753852475
96.3690066090592
96.3522543777588
96.3073350924498
96.2468330603763
96.1699949234624
96.1776920685952
96.2493133659751
96.3610619229372
96.4942712806043
96.6927057485935
96.9046618637702
97.0998779054563
97.2521573629803
97.304530510176
97.2894640139581
97.2438005734844
97.1829638753206
97.095275557568
96.9418419667125
96.8725706662783
96.9118842371976
97.0224931859139
97.0917901940761
97.1549291638724
97.3160523157654
97.4738162470899
97.536104665425
97.5673573691981
97.5327627049005
97.5053098403598
97.4928185545283
97.4610479728223
97.4542948154052
97.4630497296009
97.451486547575
97.3776896444533
97.3691613170615
97.4038065601784
97.3882125305925
97.397145774502
97.3448962003068
97.2898066341559
97.3338288146308
97.4082156138323
97.4190870454945
97.4273291866873
97.480192965311
97.6152556435505
97.7828238724543
97.8751664342391
97.8769031956286
97.8936384854002
97.895585350964
97.8840193837381
97.9180147806911
97.9559436438616
97.8921635857412
97.8584569733529
97.9051784582163
97.9082107649756
97.8307562726677
97.7872068032376
97.8042906518067
97.8668850731524
97.9386802790555
98.0222370251739
98.0387253970332
98.004081566187
98.0002563676701
98.0123045949731
97.9784337186945
97.9367892183898
97.9707204934811
98.0639306569177
98.1397785392946
98.1615261525323
98.1436354042333
98.1522366534683
98.1728369758372
98.2016530891332
98.210990973311
98.2162532195419
98.1977163268365
98.1643945575822
98.1707501347839
98.1737668397891
98.1665755088607
98.21510959124
98.3038125029558
98.3753610654956
98.3762669908997
98.3910395964015
98.3966984778372
98.4273489937659
98.4344949669687
98.4542169772771
98.4244300823061
98.4026046277711
98.4217640225359
98.4889541678114
98.4970381995096
98.4543617392721
98.4143166643884
98.4299394498982
98.4650070456904
98.4991541886992
98.5038985539161
98.4981043025069
98.476167664197
98.5004241586023
98.5355176599609
98.5472213303368
98.5505280671665
98.5618542828237
98.5585096086202
98.5403098493743
98.539058812715
98.5711079750571
98.6044803291706
98.6353649354434
98.644789818832
98.6233532979035
98.6109467984452
98.6559279216066
98.658110327257
98.6466400565
98.666179899676
98.6315534112754
98.6196109057586
98.6826179215596
98.6645578403898
98.6665965046209
98.6467512091896
98.610512738253
98.6408224017382
98.6631165722988
98.6439669560181
98.6450988730257
98.6499435578272
98.6371041992959
98.6200966192961
98.6444994690309
98.6654573310069
98.687665912387
98.6735549823043
98.6338932510355
98.5808336411895
98.5750772608845
98.6131869487556
98.6294867750389
98.6025763823358
98.59701589651
98.6266180166181
98.6507236694513
98.6077332642184
98.5909058718248
98.6300594257157
98.6498444543586
98.6475791822719
98.6308139697424
98.6280901488049
98.6639663154257
98.6937630180809
98.6961694241915
98.6812215573584
98.682811231063
98.6757164455657
98.6581781698513
98.6449339675496
98.6860779350858
98.6952581875787
98.6576727179642
98.6506137494756
98.6880985491091
98.7061657414052
98.7230319391531
98.7153767986223
98.7144370257061
98.7463530802047
98.8129689879523
98.8128450277392
98.7719413063655
98.7654631526066
98.7692388300746
98.7817092482723
98.8004554197533
98.7648139403708
98.7576334759864
98.7920249809942
98.8177605034771
98.834800778279
98.8561350253742
98.8278569329942
98.8212644402107
98.8348227506299
98.8004472907337
98.7613220199624
98.7653135068881
98.7581868588883
98.7855423960052
98.8150251333731
98.7990243998738
98.7914697992617
98.7617225803142
98.7529117617689
98.7677888396446
98.7645549431444
98.7450832714515
98.7002605568336
98.7140347054608
98.7448763775412
98.762045694724
98.7671797431757
98.7567661495292
98.7472000184109
98.7596419961151
98.7847337195289
98.7881033958724
98.7633596447212
98.7409999343629
98.7193883968615
98.7494766355947
98.7798961673795
98.7284446282823
98.6667823598498
98.6655391243583
98.6897011588377
98.6901894512616
98.640822068163
98.6379462413952
98.6161331355552
98.5827892287382
98.5851566135536
98.585393275237
98.5582084097048
98.5411203989835
98.5229575718436
98.5152999769733
98.4514035273875
98.4199426485271
98.3977669066524
98.388398903345
98.3885021418915
98.3757198836317
98.3042367921592
98.2412229494615
98.2530176174667
98.2821538434377
98.2472493438267
98.1987128331096
98.1627437859492
98.1384192267823
98.0749851665931
98.0438980718796
98.0603433421963
98.0677594358299
98.0542929730293
98.0600237331505
98.0764616706499
98.0587600663818
98.0009611103203
97.9849544319838
98.0172031905756
98.0114553335169
97.9927726077508
98.0265555137591
98.0513550783297
98.0613662798062
98.0520643509582
98.0488118817574
98.0628336006868
98.0848420212079
98.1002342031757
98.1221162984255
98.1354542230195
98.1177714063036
98.1084167284142
98.1269795484569
98.1433375048429
98.1788203503596
98.1978346666335
98.2023901353668
98.1853762944634
98.1900928567004
98.2204607591467
98.2478033066965
98.236887221671
98.2439043663274
98.238927028065
98.2379594367474
98.2403890856514
98.2333886326302
98.2489691220825
98.2575824546506
98.2717969622671
98.335269463405
98.350755233231
98.3158026601638
98.2587311037735
98.2482099905726
98.2570245853157
98.2817779290634
98.2639619564326
98.2138650396968
98.2030441560061
98.2218519971877
98.2133558240773
98.1981777689368
98.1606439775495
98.1046599377487
98.0462937402378
98.0331482705618
98.0227960838615
97.9878201135435
97.8972797147485
97.8145565202766
97.7828475599239
97.7383602705408
97.6735296763979
97.61702272723
97.5573110852254
97.5231868735495
97.5084396566201
97.47919597179
97.4317766215711
97.3869016753243
97.3873809590064
97.3679448330553
97.3127339457767
97.2722911119878
97.2032596519916
97.1028197775492
96.9732463582003
96.8832373650266
96.8286391537429
96.7339671786549
96.636840316338
96.5378388320762
96.4033636839599
96.3185180407388
96.2812044163292
96.2569272860496
96.2119970702404
96.1242479544912
96.0107250346151
95.9700377278241
95.9792093590287
96.009529879224
96.0145702521994
95.9585301281422
95.8980533405681
95.8726059451558
95.8181812120792
95.7458838981507
95.6710148896019
95.6098994507234
95.567196792577
95.5273281489719
95.4987207655443
95.4364905058255
95.3581589045522
95.3015333773271
95.2058311299447
95.0621375998212
94.9517407511436
94.8686146041231
94.7297270834527
94.5517095382467
94.3587920602714
94.1721867554075
93.9580971825346
93.7414014854857
93.5168186050185
93.2543075503846
92.9869694117319
92.7180364640896
92.449302838901
92.168165113866
91.8807533633787
91.6077143123341
91.3352512266783
91.0479726289026
90.7618426788286
90.5018020786861
90.2406172520114
89.9831353764272
89.7475939290219
89.5041913772333
89.2679506410335
89.0527934680048
88.85141515573
88.6570163120901
88.4496353928547
88.2387448827628
88.0429029975122
87.8606571339219
87.6735290173294
87.483566085423
87.3227533743449
87.1422816077715
86.9144946612471
86.6884486467714
86.4603961945777
86.2350757730427
86.0194412420811
85.7696878136142
85.504641499288
85.2741372652827
85.0607372658601
84.8372685013585
84.6448008352357
84.4522382260749
84.276372052815
84.1380517758212
84.0387232542311
83.9802404323514
83.9384108645608
83.8829145649291
83.8917186511082
83.9642286672312
84.0038344827291
84.0571168014439
84.1568774463297
84.2530557106883
84.3893735223489
84.5830761019638
84.7910103528816
85.0024300463363
85.2640076932507
85.5315877456042
85.7792590589413
86.0509008351992
86.3166364530856
86.5577300099583
86.8171719909483
87.0617793010206
87.290225942522
87.4865236538255
87.6605795101983
87.8325115537838
88.0061286546511
88.1663065852483
88.3062755895422
88.4320819276341
88.5213596031302
88.5894244629332
88.6671195366307
88.7246725622262
88.7429865431054
88.78993006801
88.8900906267045
88.9490900520349
88.974806332071
88.9781854969928
88.9850738015312
88.9840546312724
88.9501422523946
88.9183567418796
88.8856610266831
88.8593387167896
88.8296479008627
88.7795608336258
88.702519741828
88.6629569507984
88.6284913003605
88.5604221453729
88.4953498941073
88.4252570322174
88.35298652869
88.2528487149041
88.1529200557852
88.0661828103865
87.9626709727424
87.8659264410495
87.8159177592823
87.7746385592595
87.697309245786
87.5963362477099
87.4950616865008
87.3823330958367
87.2924562533589
87.1928558546046
87.0794198880782
86.9646426449339
86.8470353826862
86.748858053675
86.6820706206679
86.5729366472712
86.4975609674003
86.4738825343982
86.4541460629369
86.4381758655711
86.4622028138804
86.5284865120633
86.5820669545468
86.6426348613529
86.7407963074583
86.8729932129198
87.0442129649317
87.1840758320559
87.3194575775071
87.4978612486919
87.6926596634237
87.8735744395729
88.0450888373661
88.2067277114705
88.3733690963224
88.5781967083392
88.7608443371943
88.9267753020282
89.1349778900622
89.4013478806509
89.6946090702705
89.975189042672
90.2272832474677
90.4957106811087
90.7667408777617
91.0023924158649
91.2489894965015
91.5070642993049
91.7625058498301
92.013796382612
92.2251831438429
92.4302049315894
92.6174669280095
92.7986702239797
92.9709942925212
93.1346962588122
93.288478734549
93.422990219442
93.5425891088215
93.6522367921411
93.7638551432444
93.8601987486445
93.9272220264247
94.0110048174453
94.076792764118
94.1115147731952
94.1427924851975
94.1749782943407
94.1473044530902
94.1458737584298
94.2301418889433
94.3119121928012
94.3240593513138
94.3343341998911
94.3446353984745
94.3441653843739
94.3809260489669
94.4394664514308
94.4956129582182
94.5471168245819
94.6040713038093
94.6858379086221
94.8112336611229
95.0043795324176
95.1525511391608
95.2516853089988
95.3730186248347
95.4837338549453
95.5652367254059
95.6486004797602
95.7446568376551
95.8064603233862
95.8920282371634
96.0030424080288
96.0773228486509
96.1317527746649
96.1531493552279
96.1307220263787
96.092623209897
96.0601283864673
96.0225464495554
96.008983390055
95.9986106821936
95.9777989119041
95.9183217164209
95.8354497713763
95.7745570051065
95.8063688023992
95.9229926802899
96.0133495165102
96.0968692417489
96.1529530550821
96.1797397820446
96.200424933074
96.2173904715158
96.2565543591847
96.2964454319565
96.3125399920011
96.3342312952462
96.3888788408373
96.4431473695531
96.4890310987961
96.5204808525785
96.5401145405691
96.5736588945458
96.6311656174067
96.6946207053546
96.7510410526472
96.8340459037579
96.930731645563
97.0123843144395
97.0778220741615
97.1146416918712
97.1697433408269
97.2701408965399
97.3892552417964
97.5142194214809
97.6640092767135
97.8068788107431
97.9248793744035
97.9934110292567
98.0562725401137
98.1259948578827
98.1755315600787
98.2365275535557
98.3150527923571
98.3527820923216
98.3889330229302
98.4767090328159
98.5512594163428
98.5841327715603
98.6327554616227
98.6717634380879
98.6948335851115
98.7315549319454
98.7764189530015
98.7790208624298
98.7860550856182
98.7893693701596
98.8093316354341
98.8680463018123
98.9471404647776
98.9805714243051
98.9826201859541
98.9974772039695
99.0173686409735
99.044076167834
99.0851697638907
99.104953169726
99.1105910509366
99.1224224742164
99.1380209001932
99.1509366300208
99.1679673554067
99.1690496308752
99.1663510475364
99.1703300749629
99.1754232194244
99.1757391257668
99.1916911491088
99.2077142508193
99.2342994781752
99.2348572247895
99.219226312707
99.213185059315
99.2167947379152
99.2088766599968
99.2134161034284
99.2451072442543
99.2718373820914
99.265216049459
99.2492790479781
99.2388997459301
99.2400554506147
99.2224947344638
99.2160514865155
99.2195071024219
99.2204643868941
99.2269797355236
99.2359953582472
99.2258412003871
99.2270897159576
99.2461344738428
99.2635180987432
99.2696638028918
99.2617002713026
99.2628769576151
99.2611939205602
99.2649190008849
99.2891969657157
99.2973497423083
99.2938750111909
99.3187551603591
99.3467158211781
99.3561902708562
99.3734696162185
99.3610017953469
99.3680763642886
99.4023522713994
99.3916567443145
99.3775915346613
99.3781792400483
99.3621088592079
99.3565165615668
99.3659379282454
99.3730323904759
99.3807285805594
99.3936695979244
99.3957755190751
99.3779230085253
99.3687400119843
99.378444986546
99.3975042821341
99.422096813714
99.4412180280012
99.4592283122357
99.4474550959562
99.43420088148
99.4502762091131
99.4825817949459
99.5163553967135
99.5347392640166
99.5254889626308
99.5137821628355
99.5100371518943
99.5260169304794
99.5722225406517
99.6134055193905
99.6233256056809
99.6214568031339
99.6028667446612
99.5931526814504
99.5853341489285
99.5667224619047
99.5903445825048
99.6507333761202
99.6738752052734
99.6768774640606
99.6928278806537
99.7048733713665
99.7123028869576
99.7103262385432
99.7191435235787
99.7283153806113
99.73626952182
99.7324212165648
99.7072290887258
99.7268542851011
99.7383297562011
99.7518624432699
99.7619596920847
99.7445237409636
99.7572735663201
99.7781444198718
99.7720535941441
99.769416681948
99.7735882777097
99.7924911534013
99.807647631654
99.7921089474439
99.7783577612413
99.7705338890077
99.7575770458791
99.7715868362365
99.8028374148083
99.8021370156198
99.7735538680429
99.7488013788785
99.7496817501856
99.7944851122778
99.8088791816902
99.7952633426702
99.7866251522232
99.7623988560919
99.7419161345862
99.7567616681233
99.7925037034384
99.8043204683031
99.7742729650996
99.7598652585395
99.7719747399063
99.763821685386
99.7797475177267
99.8158082108245
99.818260644895
99.8146141923938
99.8156873048773
99.8382763509618
99.8394102726827
99.8048417069148
99.7752846482105
99.7769025407413
99.8077401637877
99.8538986300563
99.8633271024013
99.8711646098088
99.872173128786
99.8493760830522
99.8637924305816
99.8992482638908
99.8811264563062
99.8589377275256
99.861692278536
99.8720709089327
99.8611502723563
99.8611267769149
99.9102970380359
99.9007388846394
99.8563590880912
99.8822277879374
99.9145048290202
99.9379007518841
99.9073120316084
99.8688269040811
99.8645050456203
99.8512455549804
99.8532739279841
99.900747716254
99.9325241523772
99.9370258982111
99.9271869770681
99.8997898922022
99.8666924596196
99.8533709547583
99.8849607914517
99.8997852925693
99.8632610335486
99.853324525296
99.8919652276436
99.9156485666459
99.9069165471265
99.8788994766034
99.8419081399481
99.8528309511061
99.8827067168456
99.8697981071054
99.8639900636527
99.8496585859057
99.8187510525784
99.8322036620407
99.8504390276504
99.8261668336849
99.7926872979088
99.7909781192703
99.8047087490599
99.8056412402089
99.8175065570664
99.8331414984967
99.8069120283316
99.8012635995333
99.8498963536172
99.8495345599444
99.8225135820415
99.8221215385329
99.8101847441738
99.8207214660845
99.8466306176652
99.8424091246271
99.8046251182374
99.7929094104796
99.8000446413471
99.7924776974182
99.7691518457346
99.7523052854155
99.7497528692104
99.7360260485073
99.7189678391212
99.7022436470344
99.6640537597366
99.6355454976729
99.617400643614
99.5806250828385
99.5450322310115
99.5490376424113
99.5433182887795
99.5044359019388
99.4532822329797
99.4347666710609
99.4330109127576
99.4070909811708
99.4171918323265
99.4293033321963
99.4019338651766
99.3944478690139
99.3898214735463
99.3999724574908
99.4251955851902
99.4555866259076
99.4658133045049
99.4311179811518
99.4443938040626
99.4859608649429
99.5001227728584
99.5179834045738
99.5380213494909
99.5390577797366
99.5417160631741
99.557631197446
99.5895468798791
99.6077461523024
99.6259445852889
99.6390834851885
99.6403244097682
99.6590101882913
99.6629434509854
99.6561980336383
99.6751101663278
99.7135545487244
99.7197309710561
99.6915279589388
99.7060496356891
99.7499506355704
99.7672769185224
99.7811817023315
99.768359534345
99.7535693890418
99.7618188515778
99.750433668464
99.7620385492191
99.8276947668916
99.8450733579945
99.8377349073194
99.8676143823221
99.8957320601303
99.9022484455147
99.8863512138194
99.8961491728737
99.9076314524979
99.8956036778529
99.9224182173778
99.9616038806448
99.9931433786092
99.9883160810349
99.9645458699742
99.9766888646451
100.000874122108
100.014954360934
100.000838937053
100.006754750174
100.058113773022
100.083511043214
100.035842207594
100.011357187385
100.032610420645
100.05866925916
100.069573534676
100.042503585254
100.014810534643
100.047601519999
100.080232361419
100.07041777992
100.059340120747
100.070944462716
100.091394333037
100.069561626462
100.025977955664
100.038521544692
100.069487275293
100.05563824084
100.062374616
100.115184669857
100.116250163676
100.073486241911
100.037803059028
100.017551580378
100.023271086315
100.015113838807
99.9897789484373
100.016390673651
100.052077333826
100.072784517477
100.072665830111
100.047279087763
100.017955559361
99.9966997992012
100.019012576386
100.029370513901
99.994972819723
99.985466168639
100.005880409007
100.011245868224
99.9908148826602
99.9889635764989
100.012831192551
100.034811952021
100.031600114349
100.035140661891
100.017196216179
100.014850988262
100.003807243257
99.9717267025227
99.9690893270635
99.9977035829588
100.012308298425
99.9829838526018
99.9526083075793
99.9706414981343
99.9836127120094
99.9851691907078
99.9726327940104
99.9595434029729
99.9689033017386
99.9753223852708
99.9464015337025
99.9380147883002
99.935970559656
99.9300705101226
99.9486947624899
99.9593080946506
99.9289331276703
99.8697437496483
99.8443845551812
99.8963706142735
99.911628631536
99.9007590840353
99.9198590833929
99.9304288287348
99.8976805554387
99.8862080608067
99.9049052125104
99.9018551671802
99.8691654157348
99.8392911379558
99.8015524605815
99.787315571826
99.8334971862211
99.8698835737475
99.8391923856028
99.7940349263661
99.7796056901602
99.8378383471088
99.8490712062235
99.8118317057806
99.8014864298098
99.7697484982318
99.7236876357382
99.7734906456718
99.7679583238026
99.7124929189664
99.6815070070779
99.6615589358305
99.6230248985568
99.5591767830197
99.5318785056228
99.5522103528285
99.5543644870282
99.5573755434684
99.5466432571283
99.5351379091844
99.5185478628413
99.5292745238424
99.515796799516
99.5020181359103
99.475852001079
99.4948512540021
99.5093228155675
99.4843279365836
99.42025142757
99.4067698607257
99.40509914285
99.3928029615393
99.3289750421134
99.3289518529826
99.329400106252
99.3260241925853
99.2680701191759
99.251041894225
99.2222367585098
99.2491988200109
99.2164901566488
99.1870594939306
99.169686570802
99.2178193984544
99.2408847774524
99.264560733661
99.2576083798136
99.2519451957906
99.2484003676711
99.2469079287695
99.2865101002252
99.3624486241835
99.4235310003614
99.3682828546228
99.374862345309
99.3934984929095
99.4528064319487
99.4644681024856
99.5048870110551
99.5075065344448
99.5270316193226
99.5538709352165
99.5633140741204
99.5670130439261
99.5842585828029
99.6152501098379
99.626253476748
99.6593755289729
99.7226145033028
99.7571235136536
99.7736225266378
99.7717387068243
99.8085140048487
99.826605111327
99.8488591288173
99.875653035917
99.9076868172657
99.9218468719189
99.9315627342411
99.9786507949198
100.000734777612
99.9689783477597
99.9653663990113
100.008625884088
100.050701978819
100.040510044893
100.03975532912
100.023693422125
100.014604227254
100.021969844774
100.007820861262
99.9962552993299
99.988651103463
99.9665415609843
99.9672595463078
99.9343300156511
99.8935435946346
99.8860335668264
99.8684513015153
99.8466490577965
99.9020351879256
99.9487603594642
99.9345382284683
99.927675700671
99.9598007416592
99.9983464667948
100.062795699081
100.117911287119
100.13755805508
100.150031069992
100.217818466007
100.27474359202
100.226932800865
100.143989209803
100.142338004751
100.206898790351
100.222519448066
100.244502376232
100.311704800763
100.312048635413
100.296338640317
100.300237438737
100.324185360593
100.277623334892
100.187766180034
100.222876824587
100.32725377485
100.33929830733
100.303743116415
100.311220810461
100.378459504967
100.441489251296
100.472473012083
100.490647892962
100.50500272809
100.517399693759
100.490632587152
100.520348393292
100.586837718706
100.57445831409
100.592853704811
100.586504295982
100.568607736431
100.590536220073
100.575180754075
100.622018071363
100.675191736363
100.621183314156
100.588673657569
100.643188214821
100.693497562969
100.706743585669
100.766820566816
100.837612975069
100.767177038529
100.65797025993
100.652281872592
100.696884330594
100.82845469839
100.819423330401
100.706731239796
100.745806378393
100.739633304515
100.633252280725
100.593262181357
100.696470294061
100.807820466517
100.753840584754
100.68983576226
100.802186314849
100.835780279025
100.729098419289
100.657431235855
100.545347310723
100.432109398127
100.537895660118
100.600477779761
100.570949861526
100.615195210983
100.532387364011
100.458114078608
100.523093123666
100.575055066846
100.535406074099
100.516739797157
100.485669608364
100.413994522667
100.310766406246
100.204205034663
100.209580855306
100.228348098226
100.232830207962
100.191903496285
100.153821473207
100.166321771963
100.222146068987
100.210720422223
100.112414971048
100.034358242946
100.009359330293
99.9504913653194
99.882579614933
99.7766902681289
99.7828494860243
99.9142657120776
99.9642330153919
99.8338413622721
99.7152216783016
99.7728563322114
99.8407245203266
99.8569631606778
99.9961610773596
100.096678212301
99.992066524684
100.005883746302
100.190473467447
100.24389558177
100.265796373152
100.271924875104
100.239340110605
100.12039720205
99.8885148085662
99.657948607026
99.5315278330703
99.6317166651061
99.6957501157532
99.6848285762928
99.7094626984608
99.6859037499215
99.7060333558641
99.7403234196794
99.7827775696665
99.7682685680576
99.8118651046972
99.8519147691762
99.7376034788801
99.7581438863219
99.8856162861348
99.8620840950258
99.8070683722453
99.8900654448369
99.9139867466288
99.7906395291268
99.78328003195
99.7507016995222
99.728317504014
99.7311154354022
99.678069327204
99.6343229469835
99.6015288242982
99.5392322713674
99.486155535236
99.4634285662421
99.4909742483934
99.5227785397738
99.4738876051545
99.3891809975021
99.3746615560896
99.3722470659659
99.3794294905954
99.3788938637708
99.3626392807916
99.3357187299643
99.3131475086454
99.3174413850522
99.3775691585019
99.3249292437474
99.2505248815775
99.2831874149337
99.3087713566373
99.3670173596517
99.4764145205514
99.4623943623067
99.4184792689368
99.4328227540195
99.4997297863934
99.5538050135109
99.5605527310633
99.5568928522756
99.5703223777829
99.6021226635977
99.5871781850868
99.5754491702493
99.6586746036904
99.688715311667
99.6515726767841
99.6337971600174
99.6617680791434
99.6423426732729
99.6152273236191
99.610710952621
99.6316079428024
99.7131062798271
99.7388810263426
99.7276609046087
99.6984655753143
99.7005278404641
99.7518934107748
99.7419142513751
99.7161167677931
99.696475007196
99.7150595329505
99.7539396344345
99.7580643597521
99.7511096971639
99.7311565014301
99.732963697108
99.7852008329504
99.7898145393377
99.7549836712593
99.7224681245133
99.7582996500675
99.8041882135445
99.8308009802287
99.8532336716634
99.8387127443263
99.8066677599385
99.8551940175545
99.8861600628004
99.8275054313816
99.7722368073156
99.7867534508837
99.7905791162254
99.7344555683255
99.7170256245848
99.7895729643451
99.8682594993549
99.9428758490995
99.9537067840933
99.9393741642477
99.9107736381879
99.9116411036991
99.9589143751107
99.9873341490997
99.8624634452208
99.8049774629553
99.9011006017078
99.9754828749232
99.9775204557419
99.9942705990619
100.006300916566
100.08988511936
100.092478640169
100.080175199417
100.122242457124
100.196517049554
100.205265605831
100.180128015096
100.233499541156
100.347059252264
100.412036973153
100.417234001969
100.319212870418
100.363960733331
100.492533149816
100.558918056018
100.503116819767
100.421886212974
100.417835874003
100.424173330305
100.441485530348
100.561969639639
100.565128446051
100.480659628294
100.44116760811
100.512896064365
100.460858233022
100.374693066388
100.403788802282
100.489132719708
100.590968344094
100.667828422498
100.571423565831
100.546183627036
100.490018590837
100.469132155397
100.40236430744
100.4081262251
100.471186695188
100.4564284045
100.383034723445
100.337784860774
100.33344930069
100.260471290731
100.186309147131
100.31936235108
100.314601868213
100.279597277998
100.288665246373
100.311792488023
100.217397492481
100.174799359126
100.177034699155
100.181830174382
100.257910966493
100.238887651854
100.107173981618
100.134487958846
100.295502698701
100.460082444693
100.46111428076
100.339005301536
100.162690337702
100.133355367884
100.200837169096
100.242109992247
100.219890592141
100.277021795527
100.387920457433
100.505359791118
100.417858412776
100.35702302516
100.466344947134
100.675919592471
100.701478003617
100.556362676344
100.475180889644
100.509672402236
100.533582779277
100.536998986686
100.487981893617
100.412463001273
100.266465867826
100.233885223735
100.215755939656
100.205349718123
100.200929639199
100.163125208261
100.083469422979
100.108096428173
100.174704060238
100.126956410354
99.9790046224503
99.8845255420274
99.8757019474981
99.8232858771468
99.6769879794467
99.6735808809667
99.6772352674208
99.6385905754749
99.5581190894687
99.5565459723179
99.6710823064461
99.7634495097677
99.7969468066137
99.8406966361964
99.8091955653562
99.7637403466133
99.8217860232932
99.94169023085
99.8833124144367
99.8384908166552
99.8327835287288
99.8283946172255
99.8585028372548
99.8654563819096
99.8770628723729
99.9633598703229
100.011175052199
99.9447381263191
99.8214824894498
99.8999840727172
99.9983442888509
99.9665516967742
99.9148637186479
99.9542004084551
99.9488911200972
99.8901101115739
99.8421208110504
99.8449097875897
99.8558514459046
99.8659705054455
99.8257703830731
99.8023657682021
99.7690527107218
99.8210012252984
99.8306327627341
99.8419936305322
99.8956025508462
99.9493600569433
99.8870123254907
99.8434882147063
99.7927059338557
99.8110998256912
99.8000434521956
99.8292809556836
99.8311635380069
99.7928122337886
99.7767200825267
99.81516731671
99.797214639311
99.7702950175524
99.7390156821043
99.7328175663372
99.7752442719876
99.8144048915963
99.8161203368709
99.8182500830868
99.7672989981158
99.736783073245
99.7337629823407
99.7499769640054
99.7626315460874
99.8094617074604
99.762550536862
99.7469233922113
99.7298461732589
99.7210994176397
99.7423193345574
99.7453199092318
99.687371434447
99.6610383817966
99.6729086058225
99.7193258767196
99.7414505242539
99.7383097853172
99.7400577053092
99.7489725053425
99.7378815315583
99.7372242462158
99.7376391460713
99.7272751275074
99.7194973598488
99.7351278636637
99.735021773688
99.7381754925288
99.7048193741861
99.6964904693499
99.7006481133053
99.6917900421864
99.6774347017792
99.7247656537048
99.6847219059537
99.6671311339162
99.6551854930079
99.6068916726146
99.5962102171472
99.6277986107889
99.6283985491056
99.6345323961692
99.658082320788
99.6694152146854
99.648353651855
99.6217131005806
99.5803433012752
99.5694566696558
99.5868121765476
99.6110276866922
99.5858728576651
99.5957027696901
99.6276060385853
99.5962540161724
99.5690873471533
99.5598891137872
99.518699171328
99.5231887382714
99.5778612343114
99.5787124089388
99.5146954009651
99.4201039439084
99.4467893463349
99.5285748086176
99.524744416987
99.5384161481646
99.5206783292543
99.5192110267073
99.4900488674871
99.4741282794497
99.4838468977442
99.5057389341549
99.4915132157442
99.4869691308334
99.4983928713416
99.5338987270073
99.5003374208743
99.4607827555568
99.4848857650635
99.4965615834271
99.4691789710373
99.422255990259
99.3786988421261
99.4311780585321
99.4042301772236
99.4104476106341
99.4333607065192
99.4217385283108
99.3966664350711
99.4150168825345
99.4020135001618
99.3872864341848
99.3606388082471
99.3518676362954
99.3484646156296
99.3427006898483
99.3121934143277
99.3063367975561
99.2823433857271
99.3018060321862
99.3016947000591
99.2710560581938
99.2379287401563
99.2577741845659
99.2520255125135
99.2568139273023
99.2221792218485
99.2077676104659
99.2166255614201
99.1993409099422
99.183263440849
99.1913101301378
99.1394298698101
99.1348893232064
99.1289040137847
99.1377875153493
99.0905749471175
99.0329243013016
99.0175311527134
99.0043965843224
99.024432181549
99.0347772073721
99.0293527694789
99.0038640026945
99.0010172463623
98.9517343893006
98.9241844128344
98.9160829620078
98.891429100793
98.8720709910545
98.8420592341758
98.8424690530642
98.8292477170605
98.8056235379443
98.7811420902089
98.7308283044666
98.6807454857884
98.6671013700524
98.5643099987468
98.548992913574
98.4912668322151
98.4454199029649
98.4023745914293
98.3278879421648
98.2805515602785
98.2211566945899
98.1555955910867
98.0894321808587
97.9929138311456
97.8954564862869
97.7227333580176
97.6425416747527
97.5657946801051
97.4338085135717
97.3104089878673
97.2205980524446
97.143085102302
97.0366645373985
96.9001628693244
96.766824163796
96.6318551054747
96.4937799004932
96.416700601382
96.3808677035902
96.2909542568595
96.3062910736421
96.2931709385058
96.2861886973571
96.2087108610454
96.1928499659163
96.1774179710292
96.1487013284703
96.0569982428597
95.9814279447927
95.8691928342682
95.796670221325
95.6299626745161
95.4683118565178
95.2308508216836
94.9217956877665
94.5402500245605
94.2366650812115
93.877726133389
93.5461441505652
93.1753259147151
92.9272818597105
92.7169849254759
92.5761251976446
92.4715457586287
92.4257787825747
92.4023079450627
92.4317642912195
92.4771293029021
92.5363877303533
92.478354921441
92.3950226561943
92.2745720061236
92.3687183495111
92.3285202755391
92.2810380952028
92.0885790602045
91.9267496200996
91.7088033261322
91.4777262935616
91.1724253458632
90.8326994866779
90.4439065614859
90.0874078753217
89.6634123057892
89.2035082644994
88.6841341623686
88.1437926455729
87.4238645850421
86.8751551347731
86.4936995670584
86.0545715500913
84.408095223086
83.1231239275589
81.9987828566973
81.3108130445649
79.7477760882212
77.1752998897893
74.9697419418266
72.881070114079
70.6954717685388
68.6550005854566
66.3921809528964
64.078078118888
61.4925321007616
58.7392837395229
56.4950546248537
55.2049085511991
53.8526277759114
50.5685831495912
46.3863310590174
43.4930881871434
41.1973791207789
38.724598730142
36.2402913429888
34.0189140450987
32.0819679346937
30.8007691582844
29.0239872762614
26.4610275356364
24.4253506769754
22.9028669297833
21.3528047638916
20.0336095782282
19.0853069085994
17.7349267595253
16.3265857710814
15.2629357398723
14.3756818331435
13.6203972246928
13.0230593269516
12.5996299542297
12.0041399405532
11.449103639993
10.9752428193859
10.5899116191725
10.2577404881534
10.0185469992057
9.78430428810177
9.5722628897972
9.32207015982325
9.07324259861475
9.45000224672181
10.8954177542854
11.7648994812954
12.4077239220232
12.8080189471555
13.4600674527751
14.3765694229379
16.0783380562455
19.3442335114173
21.8650581564353
23.575614290889
25.2414844220828
26.9481843334725
28.6791108277058
30.4611737547885
31.6084027036255
32.3660093811518
32.9011788308101
31.7942423990023
34.9059124064567
41.6155097458836
45.0052610000491
46.5127786812761
47.5517899269906
48.589772823561
49.334531421594
49.2865547311533
50.5651876802282
53.554461395298
55.9254925846147
56.5695202044571
55.9508005662692
58.0689084781838
61.9262907522963
64.5930911456062
66.3392157790907
67.614820626707
67.7826281663236
65.7724507568535
65.8573294115113
70.4656724397436
73.7754491679381
75.6041043466511
76.712606371723
77.4898737703772
77.9044637619955
78.0455583342241
78.596574054428
79.3662339806011
80.0980325925264
81.0485617045238
81.9233332271526
82.5287003197381
82.9771182055927
83.5344798345286
84.0853717528533
84.6575442593178
85.1954892357458
85.6835821522187
86.1108852010509
86.4850716818786
86.7965499992377
87.0772507766997
87.4622932238769
87.9151194317219
88.2741271526736
88.6088627220334
88.9217020554427
89.220512619434
89.5057773698572
89.7741999233743
89.9879927992094
90.221682974997
90.454482676265
90.644650763645
90.8216747697527
91.0092658017727
91.1705291312868
91.3496191651765
91.5034018752911
91.5783865940887
91.2718171034711
90.7008049042878
91.1592676402361
92.0087693555733
92.4750145327513
92.7410938624336
92.9391875397892
92.8693603513141
92.571880454797
92.6895876710049
93.0711279635097
93.3360723292866
93.4073137504257
93.3790790929004
93.5355139646287
93.7385250354008
93.8283896052127
93.692274229876
93.1888642337963
92.6030827512335
92.1512526242998
92.7329096698513
93.8972305236749
94.310781795612
94.2257439744838
94.2293011740382
94.4208510902443
94.5250922415388
94.4155971880178
94.1349828804017
94.1108893874555
94.2503729010056
94.333635670037
94.2587135465355
94.0349798794774
93.9316402418302
93.9477733311571
93.82863229134
93.7404202980944
93.7059087213583
93.4725645257297
93.4247329498224
93.9021839131771
94.1282510221343
94.0736569691335
93.9134080224736
93.5985206404774
93.2532812649082
93.1291498653806
93.0831363749999
93.0078067011074
92.8214909372206
92.5188192776488
92.1321415782984
91.8213245200022
91.4480015718368
91.0780813895812
90.8384598060025
90.4806649756928
89.9805063102296
89.4045404613528
89.088848523216
88.9461600670098
88.6137868658719
87.9353445802973
87.1056957238814
86.3560922962671
85.5398264466615
84.5779820890966
83.533799622038
82.342811351319
81.1544360834704
79.9052081124117
78.6248063905994
77.3031740498722
75.9161114240804
74.7421152927248
74.9112175372304
75.4295376115708
75.3272037098707
74.8704845135856
74.4315729713212
74.1358874065371
73.7241946523041
73.1329914910883
73.222583126946
73.1080556217498
72.8495693466935
73.5944355798352
74.2384029034824
74.4052876200382
74.3815946218715
73.9874447711203
73.3939199188564
73.5175085692112
74.5839562404416
75.2209390977956
75.9902417487867
77.0466385655349
77.8552442878425
78.401869241023
78.8421295407962
79.1322779387716
79.4261888736074
79.9656033321344
80.5415621935183
80.9774945202805
81.1754152428216
80.9922799949571
81.2794112971897
81.7211010116416
81.5596121829402
81.270139131838
81.3762833872246
82.1501723032093
82.5522393706772
82.4530373831785
82.1686668080795
81.7839262968802
81.2933330093268
80.5240895367369
79.9308823878339
79.8491319238158
79.6581278240354
79.2836211854365
78.8281069073215
78.2135395732424
77.4514884946888
76.6973683668236
75.9441012611211
76.4577663553869
77.5877407653828
78.2014652714849
78.3088511664655
78.1009905799469
77.9490283554338
77.8100053014732
77.5584087619287
77.0501151092321
76.5082860983946
76.2919962586845
75.9252202713038
75.264169181131
74.4245983322833
73.4619771501086
72.3836122342467
71.2350232243288
70.123059942509
69.1329817293335
68.2523950195465
67.0790898552548
66.2825672304163
67.7245285624862
69.2887328608726
70.3129822494307
71.3156952317695
72.4560064807751
73.2869368524873
73.875302840686
75.0805693436064
76.359673810955
77.3212833035956
78.008116520382
78.4212574948517
78.4669154185778
78.5786967348887
78.9392802363523
79.0281090245152
78.7445941758074
77.9373743242541
77.2032215006504
76.8955249016408
76.2104184601339
75.2369157351451
74.0159374096509
72.5981961808366
71.0365247345128
69.4391205072978
67.8414811323294
66.4045722210029
65.1254519470738
64.0865678468173
63.2532296651738
62.644600072453
62.0534138222967
61.7286334011675
62.1345156837056
62.6995338246003
63.1376259121706
63.5218271065259
63.5909736671136
63.3677786108256
63.388339537467
63.3164025329579
62.610483634069
61.3245120080734
59.4821403054293
57.0641178165293
54.2384362409951
51.0189521393432
47.4994044925414
43.8999008887646
40.4312252383265
37.3922944281664
34.5842187830446
32.2741322723521
30.6286877403959
29.6496315235964
29.3047184662707
29.6715688770811
30.6126145638688
32.082814704825
33.9129079915326
36.1317605179174
38.6562084092093
41.5627954062995
44.0154889807186
45.9817905513495
48.1433844195078
51.5665344595493
55.2727702144669
58.1018388259613
60.2909110635634
61.9771823752448
63.5100678470605
65.532495030263
67.5244250358189
69.2487426783094
70.7190579040402
71.4337820100229
71.8942923820073
73.5588450423008
75.228917817031
76.9331263321236
78.3876851800303
79.345241274824
80.1111325924752
80.8086039294377
81.3387721139845
81.8970589372962
82.6193173430008
83.3286919561692
83.9266885188882
84.475314135512
84.9399282635773
85.3839287610779
85.8577234680805
86.3148138888273
86.7205586545698
87.111402827759
87.4659470442972
87.7987012520042
88.1084540958238
88.3391711457161
88.3421832596672
88.420599528113
88.7185944056553
89.1745113308904
89.5505733050156
89.8976289958715
90.2238604266998
90.415738472645
90.5402376155061
90.6557118764572
90.7629951614412
90.8720642413491
90.9870244414079
91.105338409593
91.2314145345477
91.3409672740506
91.4262135762429
91.5027458407165
91.5758980317929
91.6372990108492
91.6959243044474
91.7246733984256
91.7175344595318
91.6840018697319
91.7017784506278
91.7525362472553
91.8185861183754
91.890800841916
91.9345401372899
92.0081337741857
92.1024769501219
92.2647430596703
92.4421263293403
92.5938365805744
92.6984000959482
92.8048791174955
92.9316522277029
93.0351488119325
93.1178209199015
93.194644578944
93.2616471068519
93.3299966472913
93.3860407687636
93.4153409736474
93.4455396950813
93.4853041457503
93.5098571530132
93.5187646689133
93.5294187354815
93.5314410784512
93.521660769755
93.5134183178412
93.4960971728177
93.4672631792804
93.4240875761149
93.3858193674743
93.3417979212235
93.2924752481923
93.2561200270155
93.2168867759941
93.1633910998401
93.0967207002454
93.0150630170737
92.9238226937746
92.8062255827182
92.6690434447675
92.5157320982253
92.332147781633
92.1348535077082
91.905566290889
91.6277954232648
91.3118370140338
90.9534113042893
90.5366938996063
90.0561002671267
89.518026523706
88.9011346201384
88.1919625491308
87.363111762982
86.3952893880923
85.2685113132985
83.9393735131477
82.3915299042782
80.5971596584837
78.5572025949505
76.2931143639763
73.8462378341047
71.3150122385559
68.8657887988634
66.6299053249407
64.7630455664185
63.3853128024891
62.5974125358977
62.4013020371001
62.7490525003955
63.5757858439079
64.7828764847501
66.272967774103
67.9691410448884
69.7737144044011
71.6198743988405
73.4565741924753
75.2294689914365
76.8930839430435
78.4669877907478
79.947624140332
81.3009706475103
82.5279788287785
83.6312170754119
84.6329209668785
85.5363492331146
86.3557554064809
87.088630949138
87.7465056519114
88.3415880959254
88.8748449909737
89.36034219544
89.8062178061865
90.2082002503471
90.5721273190807
90.911316830108
91.2245894774862
91.5054253779962
91.7511117539551
91.9680162783368
92.1772453816793
92.3712912021761
92.5488292965604
92.7022370180637
92.8614923711907
93.0150322074137
93.1605259441529
93.2996220775212
93.4199313271722
93.5266488603442
93.6311070650794
93.7246657874905
93.8129123288895
93.8931914495965
93.9701310533153
94.0309987221544
94.0899596284549
94.1581523590232
94.2256240732643
94.2801507905323
94.3319570465195
94.3708279690899
94.4035227076418
94.4320461835515
94.4591800860517
94.488688549682
94.5084964871784
94.5125909537094
94.508754103751
94.5042716523161
94.5073114363082
94.5008988834065
94.4838562117361
94.4654330409919
94.4534181788237
94.4375954642427
94.4200345565277
94.3915317673205
94.3653255328152
94.3328953245359
94.2953418497364
94.2540504918597
94.2183440377045
94.1844572627478
94.1618523327898
94.1537858966286
94.1467282695663
94.1362506857313
94.1397195780641
94.1545122370269
94.1709308391491
94.1897394897335
94.19861614015
94.1912930280845
94.2023303452049
94.2266024693539
94.2364412716163
94.2361445662806
94.2334376936609
94.2156848111015
94.1947148864702
94.1595469456842
94.1170846172988
94.0790458862683
94.0246770246541
93.9550326689528
93.885877854025
93.7998864084366
93.6982576955967
93.5852325491342
93.4540403167882
93.3077668541746
93.149182960982
92.9852312249494
92.8270646720541
92.6688923583061
92.5307121081096
92.4148822439225
92.3438116176297
92.3149914836654
92.3151508778342
92.3567445463855
92.431131209764
92.5144251187569
92.6024105814094
92.6883348986821
92.7736398403864
92.8472902928011
92.9072681104167
92.9488800270593
92.97594298545
92.9960239271725
92.9898493030902
92.9716259406337
92.9547258798137
92.9228336758212
92.8669229316533
92.7887884819924
92.7092861173028
92.6281396318108
92.5249914358324
92.4005632541204
92.2655525090868
92.1198452351309
91.9628084280066
91.7786081748157
91.5859570411201
91.3811652417557
91.1412552104011
90.8751864863324
90.5899056899495
90.2725575451673
89.9230716165715
89.5441397624824
89.1113738894257
88.6270502602067
88.08384520788
87.47580040867
86.8101435141093
86.0568442237794
85.1907737393272
84.2233980900793
83.1443201498134
81.9279193994956
80.5614655199459
79.0252101179206
77.3104970558
75.4092845475044
73.3202167303548
71.0481596179191
68.5983361483043
66.0009775593547
63.2755462121658
60.455181333238
57.5785036253922
54.6661414606986
51.731138381662
48.825228178254
45.9926087556425
43.2612832721729
40.6823485895861
38.3411484077788
36.3007166086859
34.6183150099854
33.3554984499489
32.5644925171506
32.2602287615891
32.4542122386154
33.1291173814676
34.2604085743465
35.8044077225344
37.7187714393793
39.9321453219984
42.372746241478
44.9628740876263
47.6212918161302
50.2763581922485
52.8713440548953
55.335632344951
57.615377465034
59.6791118591288
61.4950402104608
63.0355521235405
64.2748089432289
65.1920459240397
65.7736906392107
66.0203373976703
65.9280974552529
65.501862959278
64.7930824760748
63.8826302287837
62.8895693496108
61.9498494670784
61.2146370499853
60.8107804856245
60.8046204992365
61.2029142444245
61.9637540715674
62.9959677495374
64.2257894257741
65.5666140546921
66.9225321153106
68.2504504668497
69.5211873600747
70.6898466601169
71.7392451698815
72.6726320514296
73.4956489521472
74.2177958898886
74.8532336693979
75.4360197388433
76.0005208334976
76.5644599106672
77.1405769950982
77.7468476132241
78.4134310773239
79.1318802507093
79.8719085336977
80.6198965386196
81.3621411606511
82.1038150156187
82.8224102949848
83.4914152530559
84.1397715241055
84.7543683301957
85.3054450493324
85.8295907456003
86.3163809255685
86.7595256636098
87.1760654083205
87.551052995311
87.8902123118423
88.2071815590655
88.4990542628973
88.7737197234928
89.0335206611774
89.2794287611577
89.5105744098841
89.7213412681873
89.9185339552745
90.1056883185483
90.2840937754795
90.4598088567665
90.6302141615999
90.7975460255063
90.9485913526523
91.0973767035565
91.2475716329284
91.3910570876317
91.5342032137727
91.6775653406206
91.8133661105968
91.9498726167269
92.0911118555595
92.2327229215348
92.3759220326862
92.5327393885819
92.6943850539169
92.8533665402569
93.0165103250855
93.1783088113381
93.3349824849301
93.4953968778118
93.6483057315503
93.7871055476398
93.9141604024454
94.0231224037319
94.1265860578231
94.2396900603169
94.3390309694981
94.4157602564327
94.491951980504
94.5672863591256
94.6497295638938
94.7250616427095
94.786431455764
94.8375609128466
94.8905076010876
94.9531796651926
95.0059673102069
95.0430063143265
95.085192769127
95.1321781699782
95.1773523805247
95.2136545506981
95.2518141941656
95.2991912739008
95.3382099350953
95.3677928508009
95.4185543901145
95.4900749799958
95.5556565239745
95.6007249247646
95.6335566136386
95.6648282271467
95.7151049075684
95.7773282779817
95.8254446749818
95.8550844311995
95.8937265404909
95.9343297301924
95.9861754256415
96.0330351460081
96.0690737156096
96.1055588434569
96.1433163637002
96.1843339136051
96.1957601540154
96.2190649304984
96.2696645850355
96.3070163504717
96.3394706029245
96.3654623086344
96.3799235953799
96.4011491825337
96.4240207330543
96.4465746490392
96.4768593116112
96.506537987152
96.523921274674
96.5439320290165
96.5563203197115
96.5676377313286
96.5966082929888
96.6178687865177
96.6407744300462
96.6575524529002
96.6620569049959
96.6794789846164
96.7071691020142
96.7271876635738
96.738334910185
96.7398072658463
96.7409807388816
96.760800473945
96.7877775058933
96.7792708904291
96.775411266952
96.8151556903493
96.8398433609854
96.8461598535201
96.8616969356869
96.8794519078528
96.8788331486312
96.878690246455
96.8937670869534
96.8994749187452
96.8886176529503
96.8981663792004
96.9124255065476
96.9192843197499
96.9318622047102
96.944706777737
96.9464239977734
96.9444278014657
96.9480118463641
96.9471596492166
96.9488263440986
96.9547501866493
96.9577149093836
96.955631447613
96.9491981860262
96.9251919778925
96.914274636161
96.9215346185577
96.9058892086376
96.8761226211741
96.8688544180558
96.854272389027
96.8124641051651
96.7766299680843
96.74951518539
96.7058491366356
96.6369840550459
96.5658297533987
96.5026546601696
96.4042432463518
96.3011570850988
96.2169064357108
96.1110471476582
95.9908690035298
95.8754936096234
95.7797577647018
95.6908734776323
95.6161132722888
95.5817317371401
95.5878620499958
95.6169701029479
95.6433561376442
95.6906114268625
95.7546264375854
95.7778126686212
95.8035567746029
95.8651250881067
95.8932544163454
95.8472363214336
95.7441646737524
95.6076494551183
95.4189704010473
95.1406185191452
94.6985615607466
94.0788927624462
93.1991603302912
91.9576434788965
90.4624879383972
89.0312685191722
88.1180145266056
88.0210448667058
88.6707621633411
89.7491242330211
90.9338486034799
92.035623160974
92.9444836660442
93.6125744565603
94.1135613942083
94.4817658936171
94.7613701363459
95.0372498727343
95.2815535232246
95.4717533334764
95.654321142512
95.8271482705629
96.0011081030435
96.1621358740065
96.2827788077853
96.4054380907961
96.504019400146
96.5531219070188
96.6453898210613
96.7482815376034
96.7884781690121
96.8163631366639
96.8753094956149
96.9487838816903
96.9938374839028
97.0082907211601
97.0334454307675
97.0842515993089
97.1300724624837
97.1226431400722
97.0900568291084
97.1153068803695
97.1714141228646
97.2101274370603
97.2129088286921
97.2072508931596
97.2219068910181
97.2095703464934
97.1530193656942
97.1415545228024
97.1955991926859
97.2285144930967
97.2129763223518
97.1840270196337
97.169143340393
97.1688670732965
97.1345621585705
97.1404809751969
97.1986126975573
97.1967736153023
97.1441556058998
97.1126343597204
97.1161279359867
97.1445501610248
97.1331288637048
97.0930449054382
97.0900501554744
97.1278770919992
97.151805592213
97.1345190055945
97.131207829666
97.1447529157801
97.1391921389886
97.1137053362781
97.0826178781203
97.060605387649
97.0669543310101
97.1100385137019
97.1450473255589
97.1428073693078
97.1406230632525
97.1465302496537
97.1390163767812
97.1248301418906
97.117887543525
97.1210643765149
97.103014560205
97.077716379917
97.0743562064336
97.0943505364441
97.1213410836764
97.1262997197833
97.099823967495
97.0635485382665
97.0444079776721
97.066935799729
97.0940944497629
97.0520871696422
96.9921967864479
96.9655994122589
96.9652041430651
96.9994921418414
97.0182770008922
97.016149332257
97.0022867010111
96.9249194462814
96.8233706726551
96.8062258074683
96.8491094124423
96.8403709691163
96.814815343619
96.8320893119834
96.8632638997384
96.8442236218557
96.7848479435656
96.7297229607059
96.6914114529164
96.6754331935185
96.6671428908349
96.6592877775242
96.6112459874057
96.5103871387602
96.4399441823495
96.4869260076743
96.4875556869994
96.4060367697834
96.3617722002421
96.3230074883086
96.337712649284
96.3496560494482
96.3058346790106
96.2938043211866
96.2575149112081
96.2292057597367
96.1895319529597
96.1162174768988
96.1142501854095
96.1445059009825
96.1051788407358
96.0736168326221
96.0253953141737
95.8690922742798
95.7753735216521
95.7942536884227
95.7304312130118
95.5952185065748
95.5322509121318
95.5530349375292
95.5431494040368
95.4876838264849
95.460264543145
95.4573911152578
95.4066070777704
95.3664102856475
95.3517195218108
95.2440462674028
95.1085957664387
95.0875277359932
95.1386559831061
95.1004829477112
94.9196510822703
94.7851036370072
94.7434724613118
94.7771398503706
94.872326321887
94.8054951936215
94.6098589430513
94.4916692105674
94.3767940377374
94.2547323065668
94.222101414435
94.2891647910954
94.3127984339194
94.2040253997426
94.1149480941445
94.0299494850316
93.9636703312959
93.9646145908276
93.7915878423278
93.6942487660715
93.7683368627881
93.7346866637603
93.6059159488887
93.4733832912655
93.397484344363
93.3499180742104
93.2527693158965
93.1684284133495
93.1586740108342
93.1346593323218
93.1328252138007
93.0340847334243
92.8288895872378
92.8416520990866
92.8119710323185
92.7024288361896
92.7333324394134
92.6940502544771
92.6152247858666
92.5127362776965
92.3124514613675
92.3103156598167
92.3859253406474
92.3572244725074
92.1685634824854
91.9444067167161
91.8915135422368
91.625041553592
91.2049453173609
91.0112894051869
90.8615628872998
90.651245717901
90.2410210126669
89.7272897151077
89.0068056109137
88.1757046124453
87.3412945639607
86.0198282987027
84.2754837364573
82.7251661920947
80.2238451192764
76.5012374074795
72.1221281595321
67.0829999718167
61.5734717851005
55.9010755526512
50.1609756719768
44.0939226340912
39.1686479625387
37.9611634607944
41.3675161368093
48.0306776612339
55.8491290096605
63.208825490429
69.0736534727851
73.3146681841697
76.4704405792148
78.523992093163
