3596
4000.36533379555
650.420452594757
1
128
2
94.968727931957
94.9621643693226
94.9724921231232
94.9583252027892
94.9458772321414
94.9586392446086
94.9972486055003
95.0178965155769
95.0267327003183
95.0084424796574
94.9957279855619
94.9667460753732
94.9612424308607
94.9691429071024
94.9572168010144
94.9517619930648
94.980811432484
94.9555677346639
94.9362000174247
94.9673561999708
94.994488837047
94.9762041573449
94.9743363346306
94.9729120223214
94.9659716939589
94.9709664513626
94.9914003674566
94.9755213669855
94.9719075454683
94.9504044700679
94.9579076414394
94.9668410829598
94.9460275438078
94.969737757023
95.0078604065471
94.9904328157322
94.9894005704759
94.9273901882468
94.8706604165348
94.9141517641952
94.9865333855014
95.0162132760259
94.9801744743476
94.9477244072923
94.9599847740722
94.9610446730042
94.9562109756791
94.9429652348682
94.9668341183774
95.0143636130668
94.9853541707865
94.9044185705433
94.9228673391947
94.8922006704699
94.819651475977
94.8731104042113
94.9916596537123
94.9956996380688
94.8940371395415
94.8182302647489
94.8937024167039
94.990716471618
94.9725643168915
94.905891097853
94.9696351171832
95.0528900342984
95.0689264108198
95.0480310354776
95.0639428284823
94.9498011336077
94.8262846372348
94.8109773636357
94.8527138528955
94.8965185190075
94.9443803259655
94.9941487947047
95.0298736989161
94.9426645400831
94.8503244675247
94.846111379462
94.9261597921064
94.9739242428667
94.9503251403572
94.9148259998754
95.0017028032174
94.96409631897
94.8240003692572
94.8068241519104
94.8884157120388
94.9506943504228
95.0234580156791
95.0707389482409
95.052902569156
95.0000358059583
94.9923549675083
94.9859276868111
95.0190260368362
94.9817781661709
94.9299511401761
94.7969497582884
94.683818656595
94.7211726532845
94.5743444717439
94.6460734264491
94.7809339758481
94.6555147967564
94.7325002389143
94.8957131807296
95.0311314026124
95.0958957108282
95.0979020167351
95.1327184283894
95.1924357494873
94.9459349894774
94.7558253453454
94.8489396140646
94.9783843889286
95.1224250509945
95.2462383965886
94.9692730167014
94.6947198511857
94.8006352418919
94.8603089143248
94.9574967198208
95.0527663230633
94.8132240709934
94.6493703085554
94.8163088193135
94.980162800831
95.068728508787
95.1870073677935
95.128885705088
94.8920403853734
94.8520276316642
94.9481273546808
95.0380119562442
94.8502608664891
94.4776608358904
94.5592898928076
94.8291513597547
95.0105745334865
94.971253036772
94.8201313930361
94.8659098238994
94.9894955646467
94.900784861191
94.8515747711499
94.9193196777088
95.0575113751947
95.160821644583
95.0379344509783
95.0705662579062
95.2506477809053
94.9261268499298
94.4911773094638
94.3733818277039
94.3282305485557
94.6561894844151
94.9122722641471
95.0067840586347
95.1432502791306
95.22331637664
95.2253979066368
95.2423728590552
95.1033874197402
94.904152525809
94.9818692658613
94.9951811058708
94.8435359080511
94.8864946393228
94.9013797264165
94.5469713641411
94.6322987354946
94.8450421243318
94.7220146563412
94.7687073471394
95.0517455454691
95.0653284972575
94.8780930478347
94.9412315447491
95.0396738112587
95.0904586160612
95.0776725081265
94.9504919309718
94.9386788372767
95.0104256815783
95.0803013063282
95.1216763349929
94.9252063980211
94.5805107305647
94.5130908294078
94.6503393226476
94.8804451909074
95.0792759464529
94.833955577105
94.6007117409248
94.7708567463018
94.9385023098535
95.0305881238296
95.095782046146
95.1492482460137
95.1683745315435
95.2538658643991
95.2392938296303
94.8672582316574
94.6978043018832
94.8696421695034
95.0178692567515
95.1197432448455
95.0378949949291
94.5744234910366
94.3900116412719
94.6591067294604
94.8817129343698
95.043394682517
94.9302150806964
94.8093658275175
94.9110768441564
95.0054038418954
95.0792504646201
95.1546166789934
95.1600574248821
95.1341622852768
95.0998817267526
95.1032219805728
95.0564781668985
95.0203124727893
95.0269353839882
94.9372446718584
94.8765305217345
94.8992506589373
94.9043718664244
94.9711977820737
94.8642989614987
94.6857721573931
94.7606428950466
94.8366710564563
94.8663945533924
94.9286388635183
94.971937941409
94.9979770358303
95.030698724175
95.0687143942784
94.9910549438215
94.7141692011397
94.6823372102898
94.8787552447801
95.000904812752
94.8439439113028
94.6930624225036
94.8204784121641
94.9626365595917
95.0371200184392
95.0823553746448
95.0678854241407
94.8644143270975
94.8065434461661
94.8862687059304
94.8388561540207
94.8021292797294
94.9191923312426
95.0664842161851
95.054560879381
94.6815876866869
94.7088776217809
94.8153065210191
94.513053764683
94.5781100047936
94.8828062043289
95.1875090110551
95.3258171515229
94.7444796421354
94.4082114847104
94.791147212126
95.1109406550115
95.1598700129861
95.3003989549917
95.3740797933705
95.3496397043516
95.2960409826092
95.1186530491809
94.870107890543
94.7042044438992
94.9222889907514
94.9282326091467
94.8122223429305
95.01015515029
95.1501337002296
95.2776846710869
95.3709140555052
95.2795188652792
95.1147532794018
95.0809672207557
95.1601538538395
95.271930755046
95.062620275864
94.9463171532916
95.0623819113211
95.1452570074378
95.0896301151179
95.0947668072585
95.1332753835295
95.1543853258108
95.091236511592
95.1685762067085
95.1511179155913
94.7717646248139
94.6959352597617
94.8419952629035
94.683452259205
94.7843629888276
95.0077094806297
95.0976266598163
95.1787360067568
95.2278621412708
95.2241788254086
95.2072667673554
95.042313295817
95.0026889721134
95.0316338478071
95.0627191505445
95.1319518311642
95.1449414237569
95.1254284924978
95.1280184566061
95.0883823802369
95.113520591038
95.1971306866124
95.0807040140698
94.8486093114365
94.9175642669898
94.7340410954185
94.4585229508452
94.7004041220297
94.9595617324295
95.0698470649577
95.1357269591705
95.130421895772
95.108731512596
95.182540549905
95.2502196463847
95.1155701484494
95.0083852952451
95.0677938883743
95.0597532011574
94.6714745507591
94.2162580067916
94.3556722163396
94.8177448496645
95.1736092587843
95.091318191144
94.8017527809316
94.7182950714642
94.6256994836308
94.8013098017211
94.9490462022686
95.0611457202757
95.1229724567066
95.1736937068996
95.1656337610087
95.1155050485945
95.117683638743
95.1281158279756
95.0920340493222
95.1309323472081
95.0704253103178
94.7140421527751
94.5780845053797
94.7650880896315
94.9009736047863
95.0305946187779
94.9793548998066
94.7567944245183
94.469861388735
94.390614515628
94.493704676707
94.3233896969385
94.4580494205186
94.7822229700632
94.9777861054655
95.0168059287793
94.9259761631431
94.8852815901597
94.902952687352
94.9302783253198
94.9083139110886
94.8572358326056
94.847584428428
94.8648167775489
94.8454339749294
94.6894394262581
94.6591367559127
94.778342235922
94.8242816415141
94.7402326293696
94.3538405497663
94.0403003497655
94.1600886735753
94.3813467129318
94.5398200436703
94.6875307369438
94.6919758300614
94.7715456815647
94.8025591510067
94.7554509246102
94.5384456621074
94.3676371724101
94.3125303040459
94.3182663818638
94.5224505838382
94.5702132492116
94.4867696264047
94.5302432538207
94.3634523394207
94.3132561200055
94.4859088104765
94.460502948505
94.271839937785
94.3112733544136
94.2504743731157
94.2500860109401
94.2886313025879
94.3573841911479
94.3922563576783
94.3612894758763
94.2885417791209
94.2273280780215
94.2338372472169
94.1535776440255
94.1189452367486
94.1843304274067
94.0400615656252
93.9615418347243
94.0442833595364
93.9669793127194
93.9620086794467
94.061496844961
94.0861515125667
94.0328568014541
93.8973259643887
93.7766665879136
93.5030931957253
93.5251373082986
93.6876050842994
93.7743637758013
93.8497715707632
93.9110707975622
93.848988998056
93.7535488055254
93.7173576379828
93.7270963065101
93.6659862567262
93.6540778952014
93.6658175676337
93.6091700395677
93.556284569077
93.552451783194
93.5086051863895
93.441504962732
93.4517083638844
93.4131753094937
93.1802122633545
93.0307053357576
92.8761714300209
92.9384561688665
93.0111817272603
93.0602355270808
93.178136780516
93.270142515805
93.2014240005348
93.1432774125591
93.1713765561045
93.1572621487041
93.0538330232956
93.0198410440988
93.0448593613124
92.9769469315873
92.8904125381284
92.8025606611534
92.7152541158068
92.7447277371581
92.7888333081436
92.820515111348
92.7465957905643
92.6514261350418
92.5654268560839
92.5284289358086
92.5623721046012
92.5681102847399
92.5823239719899
92.6776583596376
92.7171366441774
92.6414998529154
92.5843461292336
92.5600962315817
92.5100410387832
92.5420917399339
92.5124891456981
92.4417669060288
92.4371792776618
92.4336953483136
92.3831675364404
92.3208067786011
92.2550838931298
92.275464719395
92.2896144921756
92.2980517468699
92.2809366730435
92.2887389529194
92.2288949604239
92.1791456550443
92.2128696211958
92.2457226705511
92.2451721037975
92.2531358784522
92.2705082215202
92.2625639244832
92.2276327895969
92.2471147136568
92.2804218901355
92.2553369153526
92.2194473606938
92.1827412331807
92.0949414450875
92.0764722359683
92.0935295197538
92.0874410346523
92.0948745047102
92.1272028668178
92.1275704192906
92.1103486982187
92.0714695541971
92.094112600346
92.1308600094965
92.1219408674203
92.0759571765121
92.0978674690532
92.078090979493
92.0080466048385
91.9634116459133
92.0004754470704
92.0298217735224
92.0364925662696
92.0099497413385
92.0233863393953
92.0536124268002
92.0171914212411
91.9643963707889
91.9783262428063
91.9271498043171
91.8907122700562
91.9328188920964
91.9593741471462
91.8658091698656
91.8217664857852
91.8244706297481
91.8347647714958
91.8558549087219
91.878769631122
91.894901687479
91.93129951751
91.9125778936877
91.8655599263906
91.8501298163231
91.8874273175969
91.8736316838431
91.8666143872295
91.8478931513697
91.8054227020507
91.7970961846754
91.8020763103366
91.7559873177876
91.787431540081
91.8452867890519
91.8079025694019
91.72888720792
91.6979452721323
91.7408182091185
91.7815064181226
91.7213617740749
91.7114785731582
91.7436644571701
91.7763629123551
91.777435044903
91.7763494220201
91.7444341655423
91.6891920534181
91.6672158694392
91.7298599413061
91.7550128414118
91.6877828600458
91.6145200600461
91.667660348487
91.6884880280251
91.6766966628049
91.6700922474023
91.688795804486
91.700605403526
91.6911231793095
91.7270687850115
91.7360683117632
91.6838142859107
91.7265569114186
91.792911993676
91.7666167344875
91.7387150520303
91.7847041087324
91.7471633662777
91.6998307638684
91.6746410362482
91.6956039489743
91.7408039760886
91.7523929048773
91.7133944684206
91.6883530629523
91.7058535480671
91.7315834412224
91.7007537371092
91.6765343523877
91.6643735322852
91.6881685332433
91.7400106922021
91.790803705963
91.8013554605877
91.8083118914242
91.8257083477134
91.8497937950687
91.8385785908609
91.817907772282
91.8439038084043
91.8665888784127
91.8502949348861
91.8780185559059
91.89527678188
91.9048395704747
91.9382451402193
91.9410816146898
91.9013545005106
91.9250764446199
91.9499512876237
91.941251584948
91.8961994408958
91.9054218411966
91.9321597359897
91.9162089261504
91.9294556776758
91.9816522090301
91.9845177962574
91.9878277965969
92.0152787492248
92.0828197362647
92.0978198211773
92.0935415462121
92.1230521929787
92.1403599447205
92.1166301578237
92.1367482254622
92.1235296891391
92.0942803864155
92.0731034446032
92.055781569112
92.051095175986
92.0770574350771
92.1520837435404
92.1820831324433
92.1287280492709
92.1165887893952
92.132587993139
92.1801655673461
92.1668586876643
92.1269151661423
92.1251061332119
92.1363284290154
92.1310901194163
92.1762509004145
92.2275344296299
92.245893315444
92.2653411463598
92.305205035706
92.3233922726675
92.3271550629282
92.257971047395
92.227493238841
92.2791748204813
92.3402581805845
92.3684183592292
92.379961857622
92.3213581028194
92.2529753172812
92.2241138492437
92.2256241425476
92.204838623353
92.189574168041
92.1868337014209
92.2488055721904
92.3476750352027
92.3910622572622
92.3502811601112
92.3100460379989
92.2612121433312
92.2216400468252
92.2061555079246
92.237510990906
92.2448422754897
92.2476106897891
92.2575731955214
92.2525180563556
92.2982586522676
92.3630026743417
92.3787925473289
92.4194361051244
92.4468750419677
92.4277300996765
92.3904981193422
92.379214583857
92.3582496104731
92.3297661770182
92.2764419140388
92.2506412359759
92.242633188392
92.2561111103268
92.2956805620918
92.3412099576516
92.3813291176866
92.4554215359672
92.4575823346403
92.4248653679606
92.4065865334398
92.4163496730692
92.4470982310151
92.4358481685215
92.3890340684323
92.3519461458105
92.3016499945355
92.2960407401361
92.312864017021
92.3073438642352
92.2227830809709
92.1938808912877
92.2174469804583
92.2757015315975
92.3460883201678
92.4131546025166
92.4707674990405
92.5239460410677
92.5769624557838
92.6218299646903
92.6001479984343
92.5499583281809
92.5001996296776
92.4394552368167
92.3889444763442
92.4130018895807
92.4516123511558
92.475333789759
92.4965846784708
92.4943137526437
92.5047418870924
92.5704869903188
92.614469751302
92.6268011868933
92.6098847198785
92.6002029326412
92.5754104301693
92.5557480947707
92.5510331046918
92.5440486007014
92.5057922991758
92.5193455490841
92.5339674254281
92.4952243981121
92.4713487396534
92.5107789602409
92.5165152020338
92.4548784781681
92.4528999654808
92.512699006792
92.4972551560133
92.4762853325116
92.5090343593793
92.5940187330758
92.6270361301476
92.6344985961523
92.6529268319373
92.6667249996286
92.6657122426266
92.6884182134791
92.7105911992769
92.694997876124
92.6514873441828
92.6318168939382
92.6311778317979
92.6348092821379
92.6202982810086
92.5995050781693
92.5887076551472
92.6113727753257
92.6487721384689
92.6877476994744
92.7085361796031
92.7171306547975
92.7170578918787
92.7142349874929
92.723771863117
92.7068468869802
92.6844018329914
92.7067702294031
92.7304421924195
92.7779291932164
92.7967592035777
92.8223851186622
92.808670265041
92.7805859997022
92.795225623082
92.802304288454
92.7800710052283
92.7854194050797
92.8109045005871
92.7976783090884
92.7533766224838
92.7935084710723
92.8640210098201
92.9206175600585
92.9145180634905
92.8992519659464
92.913776990169
92.9356153620532
92.9305322728063
92.9120824422994
92.9024203517648
92.9055396840552
92.8852830644066
92.9020732777413
92.9125318056108
92.8841468724707
92.8741196918728
92.9102406089715
92.9461255124715
92.970168008319
92.9541715727407
92.9462315295683
92.9860274877205
93.0054278432334
92.9975476955101
92.9928533847453
92.9726317990231
92.964605796848
92.9721944949629
92.9941166601003
93.0201383512704
93.0600620444946
93.0461414478552
93.0294675585753
93.0880814259147
93.1107342611301
93.0610745903533
93.0507432563014
93.0903223930414
93.1479103116574
93.1687140318485
93.1498926684507
93.1299028208422
93.137859100359
93.1021195536143
93.0901452757662
93.1070696643844
93.1651521747387
93.1782421752175
93.1627364371945
93.1503667920715
93.1522169715032
93.153964484292
93.1737076484941
93.1767461578148
93.1703557379876
93.1783461831104
93.2059349684916
93.2099550702485
93.2186825895974
93.1983615708329
93.1894235160632
93.1953192989938
93.2384119509584
93.2941680373393
93.2835194607145
93.2160762202211
93.2157319938487
93.2588076620447
93.2619080785749
93.2772623926865
93.305391984919
93.2863040641924
93.2818089176706
93.289272639213
93.2811891864606
93.2920990350547
93.3222964212242
93.3276793837892
93.285504383834
93.2572830705797
93.2742018815421
93.2726210682779
93.284700097397
93.2976840592317
93.3152876796348
93.2942263946533
93.3062411361461
93.3488338383571
93.3730840982134
93.3644140378073
93.360681241375
93.3802806587559
93.383781045549
93.3833862397901
93.4034701815808
93.3932357584565
93.3643738894987
93.3618400248858
93.3726599792749
93.3630773592676
93.3682983314561
93.4126759904211
93.4305320515791
93.414753575939
93.4370956976567
93.4348059463123
93.4040616462471
93.3908992157177
93.3718512451408
93.3790488495787
93.4086112497824
93.4100405696359
93.4258752230831
93.4270364015503
93.4029555621909
93.395410398738
93.4336873551943
93.4476097564346
93.4256880414542
93.400606768859
93.3957963252165
93.414518140192
93.4220309838032
93.405041430238
93.4198359144257
93.4115462500368
93.418861695479
93.4305400819616
93.4585107903634
93.4726890395273
93.5005152955343
93.5201186925822
93.4899830689282
93.467156956223
93.4589922632654
93.4788561740779
93.5033753536979
93.5229010255598
93.5601360626231
93.5351290339737
93.5168761995878
93.4786921621101
93.4402218385061
93.4587832757477
93.5013989586
93.5161744134028
93.5215476853061
93.5132730626857
93.4808305268486
93.4974902937565
93.5501264461299
93.5286028411636
93.52405239308
93.5591480218067
93.578892283667
93.5595197349157
93.5706680052077
93.5750916165616
93.5583339802322
93.566091647924
93.556830485851
93.5350590587084
93.5527637796775
93.5732071821205
93.5801971480895
93.6041888882459
93.6095244973855
93.6179177667532
93.6299884935434
93.630703482204
93.6311618156239
93.6252566015711
93.613283180514
93.6252404192787
93.6617176858145
93.6612202683476
93.6295990109365
93.6377036019216
93.6449737396386
93.6418688944458
93.6572670236884
93.6733426748195
93.6799298527374
93.6816185322667
93.6987734390266
93.6985460333049
93.6846752626231
93.6770024854831
93.6652936814074
93.6509690757695
93.6543448653214
93.6529489827269
93.6755934984314
93.6856935060542
93.678211071381
93.6815817164137
93.7119093666284
93.7266448958195
93.7079574513696
93.7051839643882
93.7114327778931
93.6972602767692
93.7146000977361
93.7216895685194
93.7303233978161
93.7507771128403
93.7422966978013
93.7494129886622
93.7749394390526
93.789749200682
93.7834776019266
93.7267176394781
93.7557111474945
93.7887686232346
93.7840496871723
93.7841248308489
93.7830822985563
93.7648970919821
93.7564306094022
93.7958125149645
93.8216541872789
93.7798080543597
93.7419379090327
93.7512796187476
93.7806195553387
93.8102356016313
93.7966649565846
93.7861190293226
93.7847796691801
93.7541213810801
93.7568870805728
93.7630479391346
93.7215831995267
93.708250774684
93.7226725865637
93.7268288277723
93.7136396313696
93.692209404529
93.6823788177273
93.6624528066824
93.6629355994034
93.6528531833686
93.6272558514987
93.5955468911126
93.5742599688327
93.5277263140982
93.4708314121042
93.3978246957009
93.3466766568366
93.3039303279865
93.2634318292381
93.2266119980671
93.1771480711557
93.1020282738931
93.0072211814399
92.910016798985
92.8332532620991
92.7605501417564
92.6630243951284
92.5588055927505
92.4986853578434
92.4370304864674
92.3059367127833
92.1937950433149
92.0948999044402
91.9750017425616
91.8651190406442
91.7537647247631
91.6258363511969
91.494691261668
91.3977861526671
91.3178434013398
91.2323809457448
91.1309269354474
91.0386170991643
90.9713721045447
90.9107275475206
90.8345668325845
90.7331626707174
90.6413916114354
90.5722637379562
90.5061529979345
90.4366279779485
90.3720659678408
90.3297892304079
90.2581698531554
90.1756386345755
90.0958242407259
90.040318322815
89.9779604453543
89.9038770607017
89.8364310133087
89.7637012463815
89.6921154245044
89.6261214979622
89.5165501770135
89.3920134425321
89.3111796196596
89.2701235905603
89.1966983224876
89.1276767827807
89.0713738031817
88.9956277895899
88.9287144462393
88.8634387360526
88.8250874761535
88.778296814252
88.7034251752535
88.6986640528693
88.7038439767303
88.6753815017814
88.6606316582016
88.6649084304463
88.684027935999
88.7031173433394
88.6972978260637
88.7311787455799
88.7541784981275
88.7604457762099
88.7902684615263
88.8112814889915
88.8463536707407
88.8840336536845
88.8995109501436
88.8963267414771
88.8799599708511
88.8809090043403
88.8721947956373
88.8550771156597
88.8317987374606
88.7976650789298
88.7589762483312
88.7222725581836
88.690175634883
88.647052147644
88.6005385351081
88.556946306366
88.5040772350671
88.4661303931004
88.46409004509
88.4362800831129
88.4136255753178
88.4129832270436
88.4578142577857
88.4997742155526
88.5332505994581
88.5585507431045
88.6044152470229
88.6664149992587
88.714207401236
88.7576707373629
88.8105290641191
88.8538404405317
88.8915320522986
88.9563762712569
88.987405777533
89.0143443005801
89.0456302482552
89.0582422551056
89.0893613980351
89.0933655727052
89.0821930560807
89.0784256278494
89.0754544164117
89.077913470708
89.0646141502183
89.0442846458332
89.0292832468875
89.0072855153451
88.9995399635063
88.9754447370434
88.9550673283699
88.945010361949
88.9164304338602
88.8758075587939
88.8607454049048
88.8566786683374
88.8301124575088
88.7910572729764
88.787309825386
88.778496032903
88.7551267392549
88.7345565365617
88.7197180769882
88.6939145957952
88.6760943263313
88.6651385238294
88.680821807642
88.7242325603905
88.755555108828
88.761570380748
88.7799034893158
88.8290817390205
88.8462005563113
88.8320022590407
88.8293998389693
88.8483976811272
88.9088358305969
88.9381775380404
88.9060681926486
88.8900839891572
88.9548839936167
89.034557205268
89.0763018118539
89.1027148529319
89.1300704108237
89.1762276928589
89.2514302183511
89.2806747086118
89.2833445974549
89.3173544606417
89.3677553256275
89.3945646184995
89.4230264618495
89.4956001365803
89.6169728213784
89.7038382028061
89.7612889564943
89.8153786175277
89.8552572072196
89.896620381158
89.9334074025146
89.9492718014785
89.9896520936673
90.0763231656112
90.1918647136688
90.2631313576039
90.2943418141389
90.3356972498868
90.4017281599631
90.4663804775658
90.5117638879002
90.5425112099514
90.5798171259363
90.6103526697472
90.6605463758251
90.7224459178107
90.7589110267231
90.7932221654154
90.8376636854571
90.8946565681771
90.963775282987
91.0277085981616
91.0643355334436
91.1094741090369
91.1757474368483
91.2296963180358
91.2806969866075
91.3190712311398
91.3611167086255
91.3972747297871
91.4272929670821
91.4594935774158
91.4838912069751
91.5201933191861
91.5724708353869
91.6059151185077
91.6204272909285
91.644023562742
91.6689225339035
91.7027266793046
91.7257576880194
91.7400562122458
91.7566910855651
91.7643961504918
91.7769384407929
91.7764988383116
91.8086846166272
91.8540677172972
91.874962928607
91.8780537698944
91.890732920879
91.8950545447004
91.9219449551849
91.9328589131206
91.935570659197
91.9278056775157
91.9550224378452
91.9968314687867
92.0198943904728
92.0275797498683
92.0449501821142
92.0569680007037
92.0744870752801
92.106847722349
92.1033130118636
92.0796734921217
92.0741550016277
92.0763265938921
92.0846091352021
92.1047076004216
92.1177780665529
92.1327488516733
92.1477846888058
92.1550878308203
92.1707119549535
92.2033923792609
92.1968579788132
92.1804305761423
92.2129683009849
92.2411688720289
92.2489059890934
92.2726391996999
92.2801557810641
92.2693661645496
92.2742611681505
92.2925572553392
92.2909895023623
92.2952759571212
92.3228043962191
92.3421891819515
92.3334121857039
92.3144879320278
92.3283164161849
92.3260187723925
92.3235819742546
92.3262731314502
92.3301986635646
92.3459581830972
92.3315271559682
92.3214537054161
92.3453377894881
92.3614537687452
92.378605229972
92.397249381491
92.392561748762
92.397401402122
92.3930508949065
92.3808746669232
92.4008763986627
92.4028451611519
92.3812747475839
92.3804986928145
92.4155609366299
92.4022145573054
92.3929630334067
92.4098792956837
92.4064124980183
92.3987273133768
92.4122723744104
92.43068807804
92.4038068070183
92.3817523177209
92.3905486173932
92.4028983660349
92.4356644869398
92.4546197428697
92.4390729690503
92.4215394065272
92.4356201041053
92.4373626432397
92.4350594080043
92.4454421994644
92.443386331647
92.4348369565925
92.4317328740064
92.4516296968665
92.470897024646
92.4635754366176
92.4606847929144
92.4588822530009
92.4649011122653
92.4858668253701
92.4972992880772
92.5013825811034
92.4966989265581
92.5045927061748
92.4898510736692
92.4728194095542
92.4913452261216
92.5110739740415
92.5011349945043
92.5031853062357
92.5194817714716
92.5355340354515
92.5395806234403
92.5334997027902
92.5233681382189
92.5329965496458
92.5464613334111
92.5349346960446
92.5500001675814
92.5667487067249
92.5812561778174
92.5863984070703
92.5683950416288
92.555860428476
92.5756010595238
92.5876534487292
92.5836600589503
92.5665624796939
92.5551067612551
92.5448213502026
92.5544711477458
92.5787098333586
92.598370918001
92.6042523895004
92.6005847960339
92.614327760275
92.626286612662
92.6176003163615
92.6021383184271
92.6236719844402
92.6359856831249
92.6153324064014
92.6143333911151
92.6307356591148
92.6420608666554
92.6315948757418
92.6078782676077
92.6036532037104
92.6191158813688
92.6074482854393
92.5891965437313
92.5993185653723
92.6040542389823
92.5985207800306
92.6142025264509
92.6113382653127
92.5902494968798
92.5975748243905
92.6057292463403
92.5880674014415
92.593630874962
92.604567322096
92.6036227163767
92.6008860712218
92.6117733415322
92.6196779643564
92.5825224199355
92.5783434045857
92.6393851028885
92.6580095413485
92.6411450414976
92.6508283883139
92.6617472632154
92.6571421842701
92.6631618806353
92.6846156081923
92.6819700798678
92.6841113812694
92.7116136695805
92.7131781391801
92.711981371159
92.7344976440815
92.7440597767852
92.7515221478671
92.7570047640846
92.7625797440266
92.7699916020309
92.7849362521985
92.7885438709518
92.7884037001075
92.8206687066032
92.8649429508509
92.8498324121277
92.7956473278228
92.7972406298415
92.8448927157411
92.8765554807253
92.8726532089189
92.8656035266972
92.8421338104347
92.8443091691444
92.854667831732
92.8960470216769
92.9238554205183
92.9231081901431
92.9235592687294
92.9462861225853
92.9559635654909
92.9925022857219
93.0168963519676
92.9879052800104
92.9751459083981
93.0234034196319
93.0300293081432
93.0151559852637
93.0231944451158
93.0168505665822
93.0067695714312
93.0273104309821
93.0670705230586
93.1079164564816
93.0789970418337
93.0748574202545
93.1264779683095
93.139033849378
93.1370549010896
93.1485441051232
93.1287251123262
93.1389568296458
93.1643314779972
93.1613104530219
93.1629888418974
93.1605617023486
93.1708119748882
93.1887532404038
93.2070502897686
93.1989387391035
93.1795601013496
93.1975814009748
93.2027000713509
93.1852221181352
93.2086496483355
93.2263069740246
93.1834069646584
93.1494018046017
93.1531346455358
93.1861780923108
93.193622697364
93.1724736936526
93.1619569479253
93.140741293069
93.1270823292818
93.1342064790646
93.1355806565099
93.151964489614
93.1447616994811
93.1701702670281
93.1781237079935
93.1406354666981
93.1653753450627
93.1813047511725
93.1481966915096
93.1500517903429
93.1721675976158
93.1731223845155
93.1838310394468
93.2166219323911
93.2148737485174
93.2128800673621
93.1857104143767
93.1532581566801
93.1973083387395
93.2238310908976
93.186575874488
93.1658012713824
93.1738266311411
93.2246948887239
93.2596483896931
93.2438026976082
93.2229973690068
93.2472640174477
93.2680376634776
93.2585812402889
93.2611473308221
93.257882966727
93.2454376453627
93.2283052458114
93.2061926953415
93.2483915920497
93.2783657381057
93.2407244519316
93.1925274130701
93.169742721501
93.1617651907232
93.1880245013296
93.2381998610407
93.2445030255041
93.2040832631474
93.2015340609289
93.2207268409272
93.201030657781
93.214301269418
93.2292233020809
93.2236722542907
93.2246663262909
93.2254769213061
93.2677226297149
93.2707162458172
93.2496130244196
93.2400818355497
93.2445214322474
93.2368787183203
93.2574602685274
93.2579469122551
93.2454057745542
93.2363916193762
93.260330315103
93.2753400720587
93.2801987654472
93.2721513184001
93.2738276055209
93.2839741509997
93.3170897299126
93.2939822823074
93.2438064673967
93.2655846572086
93.3233518742013
93.325528265026
93.3179032040719
93.3058282965787
93.2959053712692
93.3075268018048
93.302644264947
93.2664406482985
93.2523250076725
93.2835423699585
93.3275129793087
93.2761732286965
93.2438226733206
93.2671065652349
93.2845554291615
93.2935574668184
93.3010299374816
93.3232532043016
93.3678850565982
93.3693031816888
93.3206888764887
93.2840121046304
93.3046276366125
93.3335417112825
93.3559952464332
93.3580030900822
93.3313503966975
93.2941739334535
93.2876176326766
93.3147528666322
93.3394321430792
93.3551592835324
93.3805444311286
93.3561432200227
93.3100593642776
93.2852807857656
93.2997916468923
93.3257493669526
93.335020237388
93.3083786143335
93.2723792022474
93.2641135261023
93.2881529732042
93.314604827104
93.35498214964
93.3538322602388
93.3351138916974
93.3042358242376
93.2725402440493
93.2653125879923
93.2997163740557
93.3132107537888
93.3191739860328
93.3355047988595
93.3336378544822
93.3275132075083
93.350039541812
93.3202943331972
93.3132628722768
93.3142865016575
93.2939746992641
93.2843504396996
93.2883880275732
93.2794033681634
93.2778011642071
93.2899367397277
93.306183167372
93.2983021676822
93.2834978297716
93.2563426405133
93.2614933887414
93.3046029113257
93.3204839393863
93.2941258815585
93.2806152089132
93.2922781515942
93.292258614833
93.2575084830119
93.2477024055942
93.2566454714135
93.2841483010683
93.2915169433367
93.273642033488
93.2653380324649
93.2555722978106
93.263700264428
93.2941725949781
93.2340706903448
93.2050833819343
93.2417470518356
93.2646914767581
93.2502402861863
93.243368680736
93.2274489389872
93.2184495349618
93.2081162701337
93.2095433311388
93.2031100816689
93.2107281143728
93.2330100828028
93.2296483155983
93.2109655353854
93.2106077953068
93.1975588543467
93.1920062975554
93.187791410241
93.1873495696166
93.1598460782983
93.1498642409422
93.170649738952
93.1975606638737
93.2100584412937
93.200876714258
93.1825865900546
93.1918137252203
93.1819369495644
93.1671425106748
93.137832172827
93.1162207615224
93.1232956814446
93.1564434170713
93.1525545239566
93.1299968751396
93.1109964898951
93.1080283965908
93.1044473828829
93.1319925002267
93.1361111804478
93.1191750976904
93.085259717669
93.0519583243435
93.0593795607682
93.0867857576637
93.0308959319782
92.9746578198681
92.9756807596487
93.0233591475353
93.025278515317
92.9919211730656
92.9614885565893
92.9650166693561
92.965907866552
93.0078561489458
93.0469911404167
92.9855866897923
92.9390279416042
93.024739756221
93.0219537925072
92.9894886974338
93.0104380041747
93.0178368942557
92.9864019984255
93.0258753262385
92.9950394141193
92.9833115198874
92.9998157831841
93.0253037004182
93.0497547733198
93.0580021217116
93.0730635452264
93.1308406839891
93.1610147244877
93.161553380628
93.1072173079319
93.0393247399022
92.9611341569782
92.9113280478974
92.8401477764629
92.8491742666889
92.8568420147304
92.9006900300479
92.8785798269854
92.8595456910488
92.8655631443208
92.9354477923239
92.9166658645767
92.9162095742588
92.8912925176274
92.9254577958572
92.8941573431737
92.9274707119454
92.8828178259754
92.8747793606725
92.8232138455207
92.8980882983442
92.914353276585
92.9248888285197
92.8025788845729
92.7932906230472
92.767162725307
92.8001080028321
92.7611938250618
92.8096103003106
92.8527094092825
92.861850125149
92.8685529245796
92.9021345867421
92.9472490935319
92.9185875739169
92.9717641003979
92.9745643051856
93.0384956754881
93.0010327086285
93.0364821103462
93.0584360212594
93.0988632924884
93.0695522839684
93.0590294461281
93.084472983644
93.0954146473382
93.1114880282208
93.1069444461657
93.1369334973966
93.1635502415329
93.1584157570015
93.1889848613861
93.1807664641869
93.1881356480595
93.2161321161231
93.268459329001
93.2635844239287
93.2374375607245
93.2755082049657
93.3113993224344
93.3176275601844
93.3555501925698
93.366906240109
93.3549066320616
93.3369150250457
93.3306318191708
93.3417959649013
93.4139764055952
93.5168234078152
93.5316061070744
93.495494890478
93.5352722693217
93.5586352673358
93.5370238491289
93.5409584550573
93.6057111294775
93.6629462887948
93.6798456407038
93.7047249925959
93.7307646106649
93.7678474367236
93.8626414324639
93.8836894357563
93.8254436631657
93.8313918982244
93.8885889603176
93.8815015740809
93.8849826467923
93.9697102372561
94.0614019591226
94.0796971502613
94.0558749832971
94.0342193737037
94.0425488405
94.0315216626559
94.0242755824282
94.0747569579751
94.1851220571583
94.2408325382856
94.1879657051703
94.1243603873907
94.1663796803096
94.207959629483
94.2068834962597
94.2540797359584
94.333420897214
94.347408871495
94.3486653188348
94.3503674144283
94.3499184132147
94.3563828910332
94.3762757725588
94.3742137009506
94.3634708310675
94.4484187922697
94.5121753242577
94.4461483581335
94.4243159111647
94.4891660815668
94.5073184976207
94.4775561609978
94.5243060118963
94.5799840383319
94.5762491703157
94.5758994401322
94.6135272609114
94.6365384781154
94.6398610286142
94.6259476992461
94.6193504176697
94.6887328785891
94.785352447309
94.8216355023576
94.783861452735
94.8145511895685
94.8620249954915
94.8129415193098
94.7806873816308
94.7855850190068
94.8638228781614
95.0338526891185
95.0529622021834
94.9135034717365
94.882911139105
94.9108969502138
94.9609611028117
94.9875084336657
94.9616406567675
94.9786920893584
95.0326530750769
95.1276019055166
95.1523493097451
95.0261565776984
94.9481028382262
95.0629516235721
95.192719967266
95.1477993519217
95.1189426814798
95.244031134361
95.3014643784004
95.2715625715035
95.2298003360635
95.2317113078836
95.2591753493496
95.2805784073477
95.3330301629607
95.3835113652227
95.3733701941517
95.3767711013032
95.4349496872407
95.4358449209456
95.3940033257577
95.4485043803885
95.5673916189146
95.6069169593784
95.6346850624591
95.7676761448241
95.8953684265323
95.8425128812799
95.7060202864962
95.7118955495548
95.7913131022314
95.8789269208962
95.8407399227631
95.7918859070367
95.9299576019738
95.9242523383894
95.7214807855614
95.7378159774852
95.8745900793732
95.8860665611928
95.8515044837863
95.8877545186644
95.9645568866115
96.0494194978519
96.1156533104769
96.1322014509176
96.1714656593673
96.2303253205633
96.2396013355227
96.2867469518311
96.5185598773527
96.804360497454
96.8024009367668
96.7320401296192
96.5954134616901
96.3067577793836
96.0830440726679
96.0566957138573
96.075926986884
95.9858372468242
95.7987306035114
95.7070469607655
95.7952826024944
95.7460765875274
95.6033609592806
95.4970011834096
95.4028588994512
95.3877416619506
95.3873452322112
95.2794080975526
95.0869636905947
95.0951453554014
95.1693120095988
95.0504262871575
94.8774403615771
94.8438780730778
94.8188485518135
94.8396737942268
94.8631628805511
94.7844074148215
94.7225733774392
94.6939722935529
94.6401299665614
94.5460684124323
94.496927047894
94.4806724063494
94.4621450737595
94.4472741863951
94.394924417789
94.3817194185443
94.3600798144694
94.3072958026221
94.2123539471875
94.1044731850002
94.0629387206353
94.1043222688861
94.0989352259711
94.0816643714645
94.1452952655739
94.1627740479477
94.1165744084594
94.1129514678307
94.1213984452746
94.1067359499075
94.1020531933919
94.107045400054
94.0877825643645
94.1306588533942
94.2015320219591
94.2152688009521
94.2404976250728
94.2563531234957
94.1684204223224
94.087402181051
94.1202806818282
94.170993550042
94.2146282641171
94.2632435738272
94.233497406561
94.240171946558
94.2621175989854
94.2040826208612
94.1391577675068
94.1402391403374
94.2093913509155
94.2316585150863
94.2034007856198
94.2532033338194
94.2501557308907
94.1740705326448
94.2192239482326
94.2604326892626
94.2154636196805
94.2085828231739
94.2400446819282
94.2641007220827
94.3103456588737
94.3958921999817
94.474563186406
94.5248384615344
94.4485720424571
94.340647072167
94.3859645136641
94.4208458634445
94.4205756197234
94.5049272126834
94.5360458229364
94.4556953204934
94.4612371112148
94.5300000078848
94.5277848096074
94.5654734377524
94.5557561428096
94.5858066118658
94.7216167088152
94.7483991904034
94.7287533556867
94.7956184321229
94.8673143543935
94.8819385675291
94.8314147992459
94.8125755318664
94.8300221279558
94.8860133724165
95.0030466721083
95.0510187870569
94.9849063071694
94.9795909638089
95.0639227407583
95.1292502811102
95.2048199811606
95.3514568209186
95.4056155550298
95.4199879221859
95.4314413483687
95.5378410778589
95.64709873863
95.7378796999987
95.7341760141891
95.6735809650151
95.7096627698601
95.7292162762658
95.787915509503
95.84803150518
95.8411416992585
95.8753064751286
95.8849071310618
95.901083281274
95.9668240705629
96.0155389655876
96.0694298468295
96.1405105007065
96.0710703560232
95.9528582497629
95.8473423292896
95.880722787692
95.9646347269762
95.9967258223921
96.0292742513196
96.0853282297639
96.0593213329212
96.0227660820091
96.0025376249918
95.8883551899654
95.8409106248693
95.9832224935759
95.9681256642321
95.9075988378534
95.9641024993128
96.0005530486787
95.9129594870581
95.9456870048144
96.0753195636633
96.0627271694259
95.9534318993067
96.0112775813425
95.9736950666237
95.8555038279436
95.8552150007869
95.8419666533393
95.7028503399559
95.5602125718724
95.4823768418751
95.5813397763649
95.6723051699088
95.6440267265111
95.5842516319366
95.5771411214371
95.5697028628836
95.4639260440904
95.3972040177463
95.4767914503833
95.5580270645439
95.6257006001688
95.5895154966556
95.5988399879736
95.6741152120483
95.635692249979
95.5566002188807
95.5862386824689
95.6556137842699
95.7868039033453
95.8711762215221
95.8290153354472
95.7612920134922
95.8046428543224
95.9301809231334
96.1598577634019
96.3206781433056
96.2712724470262
96.0360935157138
95.9734141771882
96.006145379704
95.9078750763357
95.8762453100969
95.9406354364834
95.8993907498963
95.846988626284
95.7940261755614
95.7928539712671
95.8225610621532
95.7613213049013
95.6780298613348
95.7295183707491
95.8097014225082
95.6868980772646
95.5488217239248
95.5915242915464
95.6196745347813
95.5031271420448
95.4701499758896
95.5535130379381
95.4700064153662
95.3121531552848
95.2564823802786
95.2959917471235
95.267808497559
95.1540598756068
95.1249837783844
95.1719291270148
95.1894861361072
95.1763857820775
95.1357769096169
94.9854095358684
94.9501637634557
95.0397733093724
95.0413750761513
95.0452174346131
95.0360673175338
95.0336500026553
95.0174428925189
94.9781932760172
94.8730711437104
94.8379778062396
94.8331482682937
94.7928488271509
94.8322715863171
94.9131234847885
94.8371554456907
94.7810611824884
94.7725386178171
94.7447238931271
94.6907290809157
94.6281189712083
94.6351990032495
94.6708177636243
94.6693072494253
94.680963874369
94.647821464058
94.512329006974
94.4819984274983
94.6223186463693
94.6918190270739
94.7055670519674
94.6564064106273
94.6277894831585
94.6048205333158
94.5984960964131
94.5369581499486
94.5235360688008
94.550661737919
94.5502267164278
94.5580959272515
94.6111286053171
94.60739729688
94.5831858771176
94.6054319876497
94.5654366075417
94.5339431462184
94.5360944135392
94.5545848026225
94.5565918129994
94.5592257838871
94.5230222628258
94.4566560130543
94.5218565167855
94.5579571285204
94.5589073157269
94.5656293709436
94.5167065753377
94.4191483568266
94.4585676919857
94.5520166331201
94.5754839258259
94.5874217291623
94.5611449791608
94.5432953581077
94.5515665159961
94.5659253765436
94.5549156356371
94.5266895613265
94.5036904420197
94.5299785963278
94.5266021368948
94.4985977648538
94.5057082017305
94.5203341847252
94.5387340450766
94.5560043986654
94.5671143600866
94.5445699550118
94.4742190620298
94.3251313109514
94.3010114461615
94.3856757172834
94.474926683091
94.5513687142462
94.6038008559538
94.6014559759128
94.6060916761733
94.6142999851602
94.5962212619519
94.5530205656801
94.5386068121713
94.5637720538084
94.5873623313071
94.5751028123297
94.5511473935572
94.5551653563393
94.5539416751205
94.5695058921628
94.5923392711817
94.6168178369369
94.592888379025
94.5495104271648
94.5397191885171
94.6002309103421
94.6177621519094
94.4627951549902
94.2459233528561
94.4360172470951
94.6594413462353
94.7261367727479
94.7211975950879
94.7025930959719
94.7014853345418
94.650335151344
94.6298072292233
94.6851906227131
94.703237888127
94.7074724494931
94.7091044336112
94.7440100398386
94.7128132856648
94.4814051350127
94.4579999528652
94.6702872034738
94.80366718488
94.8293560682158
94.7082597632387
94.6950700287608
94.7859577606822
94.8143435647425
94.8647026060134
94.8898438491339
94.8882688594039
94.8585098603559
94.8195429657484
94.808885791109
94.8683153882845
94.9012839537157
94.9219459027636
94.9209597571591
94.8747119362167
94.8048151528745
94.7884552088868
94.8782317627462
94.9485736560069
94.9598185456484
94.9978029443636
95.019776757921
95.0219881301385
95.0083080493908
94.9723871972423
94.9433997328781
94.9934080542408
94.9912327158437
94.9503537229387
95.0658212731922
95.1435385591165
95.0741804498484
95.0813376623109
95.1720477799533
95.1440239565632
94.8782831414219
94.8722167624062
95.0258402671544
95.1443515633404
95.2737786941186
95.2990983751938
95.3416766590943
95.3358830578823
95.2608413299872
95.1794542189388
95.2888997285647
95.3475599555842
95.2912107302557
95.1849617155631
95.2534434792266
95.3594014614984
95.4332214793584
95.4533347584362
95.4021323489792
95.4148244883058
95.5005714641082
95.3676780565671
95.1241024688023
95.2345148357025
95.4737487288544
95.6093561384765
95.5249864672256
95.508573069154
95.699861570288
95.7605927113373
95.7704705131788
95.7803747167014
95.744828533358
95.5617320008136
95.5421193770661
95.7496558050381
95.8390242139651
95.8597564392745
95.8140393048918
95.7634629176078
95.8747233771155
95.9535846514185
96.0110222686578
96.0262077724774
95.8439850580287
95.6920548903698
95.8849860187283
95.8995152880516
95.8646880471243
95.9703322245631
96.0706538707472
96.1669898936378
96.1097380000189
96.0106365107746
96.0718381165329
96.25567493735
96.2325755228058
96.039176007
96.0879148442478
96.2638132853402
96.3549227914649
96.4764709837545
96.3188793450081
95.8639946890462
95.8685939102576
96.1895145706612
96.3189099294338
96.2418049888658
96.1911476756317
96.3166789750118
96.3381101461032
96.3052945785012
96.2714411411194
96.2338917113767
96.1491229500444
96.0986715695639
96.117721581639
96.1519558305453
96.2123021132491
96.1868468600574
95.8458398065846
95.6114218667634
95.6731169646919
95.7102221921665
95.4858997380771
95.4479344195251
95.4252292059884
95.3755254710738
95.1689995075141
94.9036634019365
94.7473892618052
94.6289773974868
94.3341697567389
93.9056965964401
93.5285562141158
93.0417019460721
92.6057935165526
92.4829996737764
92.3725965762548
91.5074411573931
90.0518806685173
89.5921430143999
89.1870172136876
88.7766865921895
87.4150377702487
86.07945206325
85.385158511919
84.5801789433801
83.6752341368709
82.8250148848723
81.867735867772
80.9127423052681
79.8331447784889
78.8265602394864
78.1678163953615
77.6171801657396
76.4488451061159
74.8003266708398
73.7169454318734
73.1267082413081
72.3224944301143
71.2842383174737
70.4827030117684
69.8227984716049
69.2518555839737
68.6827764159298
67.5377227946773
66.7794829210161
66.5138614410241
66.0451860123409
65.3912617086745
65.0076753906938
64.4985947553694
63.7508536752324
63.581286139194
63.4869532958482
63.2438146720616
63.0252281409788
62.8093217522556
62.3357987625232
61.9467336461848
61.9514813729274
61.9154639701111
61.8115944948728
61.6942138926715
61.5806420947117
61.5201674872614
61.4427716856782
61.0762634499483
60.2538376674753
59.543721946228
60.7289867128832
61.9279725243637
62.4663409256037
62.5273352874952
62.3579111398599
62.284856097126
62.4792023232264
63.3896342220096
64.4422828714765
65.0735314528857
65.4616053562747
65.8481912424194
66.2327073712071
66.670043030871
66.9636045787544
67.0998694616896
67.2201493157708
66.8190943089852
67.4513076722397
69.6427924854709
70.9594145954092
71.4989600446642
71.8116111259172
72.1093341556417
72.2909375901865
72.1634630634594
72.3725476399185
73.1958673912264
73.9249123356751
74.0594717470413
73.7402707864135
74.2097687755838
75.3492602903861
76.117384397838
76.5123817416055
76.8086968944758
76.7697661333035
75.9607401943673
75.8628698616308
77.4591991142418
78.6218727391527
79.1028490011618
79.3399823527927
79.527299713009
79.622080481023
79.6122763297035
79.799496776454
80.081613169012
80.348242920841
80.6907961045397
81.0232756614947
81.2346275939453
81.3776071135777
81.5948112506431
81.8221844657793
82.0479787344608
82.2754587071321
82.5009436940234
82.6645550270001
82.7966978069904
82.9208050214776
83.0239569554951
83.2076660563417
83.4849809931928
83.6860925081399
83.8378192015802
83.9827403078118
84.1516042450664
84.3094448938544
84.4479204290284
84.5731590524326
84.69202450821
84.8114372358054
84.9407278536019
85.0541802438422
85.1829562125278
85.3199487995197
85.4393092748923
85.5322265274082
85.5741894028465
85.1307823692356
84.265519183721
84.8240590180575
86.0819684979985
86.6916951638976
86.8538328320235
86.9001089275235
86.5581154349478
85.812842658647
85.8954225650569
86.6931378478638
87.1902238648705
87.2526679389313
87.0441641031114
87.0855459109971
87.3415890023267
87.4756333595555
87.2217995075441
86.2207348886523
84.9013013412175
84.171396274826
85.4334408740581
87.7635059319582
88.7133584120406
88.5383410866922
88.2552977395565
88.5094139616693
88.7102955736806
88.5058774369647
87.9991195593424
87.9787905735063
88.3640132279381
88.6270025050552
88.5580575104252
88.1021466030292
87.8630633921458
88.0614174076993
87.944045788616
87.7861874540044
87.8978739938707
87.5907299923377
87.4325153742008
88.8125775586984
89.7657010980864
89.9750447266291
89.8362835485048
89.3187797364176
88.7276594521037
88.8913283679302
89.2887024603341
89.6205747337359
89.7689399285125
89.6454491180223
89.3823530570138
89.3554706738142
89.2374038717661
89.2056345905243
89.5853351444548
89.7123766001508
89.4277877352426
88.938879087397
89.0772268538101
89.9930138935999
90.4728789820572
90.1734987924699
89.855947491498
90.1006745592162
90.3745749711178
90.5609411624698
90.4733947266119
90.2953447960896
90.3322641596106
90.2481160232437
90.0257878586141
89.7326206242244
89.1935580855257
88.5434926828598
89.0105922647375
90.0098677481701
90.3751387839774
90.2499972893014
89.8386765264479
89.4324605384266
89.0393180796904
88.3903644652766
87.9788876590454
87.7029252106565
87.1416083495043
86.9348338536197
87.019734202282
86.883530254474
86.649282963512
86.2784468498975
85.685684160854
85.3429615248123
85.7936957215011
86.1464507630005
86.479607763434
87.0133233642875
87.5110091202538
87.8275753681262
88.0706326953185
88.2266601443698
88.3516211209082
88.63187677652
88.9995971924536
89.3047458607249
89.4787198795016
89.2772973589282
89.2927210980373
89.5914792904577
89.5559576447242
89.2315998799836
88.9789639554229
89.1497447536892
89.2192974441747
88.9330895681109
88.3904985945085
87.7162708250363
87.0462886284226
86.2014466522263
85.0719668725664
84.2365413434983
83.5937493216772
82.8642054585266
82.2167495530383
81.6146744462165
80.9462941813526
80.3552007815791
79.7821412471424
80.3793644249019
81.8009872967217
82.8893338516916
83.5285957410963
83.7960902902112
84.0762735509963
84.4412495464321
84.7276060744264
84.717143335332
84.570384159214
84.7848104651175
85.0009974884144
84.949346747992
84.7039360152261
84.3569690865526
83.8951185406627
83.3513894345638
82.7399455536788
82.0905582679323
81.5006577201678
80.7856119478278
79.6391684802093
79.0224364817501
78.8568450418224
78.4392752201312
77.8627665687883
77.4122418365956
76.9932737171048
76.39526516734
75.9530022304359
75.7030975388973
75.3140302923403
74.7457567523312
74.0780785091396
73.2346784763838
72.2517230601352
71.5553137824802
70.9619535420557
70.3819145186553
69.474263223967
68.8275881234626
69.2140872222736
69.7144025989548
70.2807177783562
70.9523879150094
71.6107526848728
72.2602160262803
72.896650066024
73.6426344407274
74.5309634686448
75.4483203085561
76.3723297836401
77.2205873479125
77.9903472036412
78.4222258465772
78.7239799940902
79.6858393093064
80.6632467576234
81.3186517983851
81.8086767373158
82.0030539091927
81.854674292055
82.1941161220754
82.9574395658111
83.5125847732338
83.6030497009141
83.5126926010808
84.0369115213345
84.7627048788546
85.0534738039167
85.1307236489695
85.1474252907753
85.173928061589
84.8987298675008
84.5738585899398
84.8462045636613
85.2249003882101
85.3323251996448
85.2663796345253
85.1267205425219
84.9647786287635
84.7786564174195
84.5684702038577
84.3705308011528
84.1802902700987
84.0629155989748
83.8820302375556
83.5510598599287
83.1767789701472
83.1166787623126
83.3339713852725
83.3926931612003
83.3530981590236
83.2363241931824
83.0971516200784
83.1500749188378
83.314714359219
83.4580182232227
83.6098238326573
83.5430465239773
83.3789283112129
83.7586193378206
84.1927985385142
84.6855956614913
85.1028922039728
85.3143776148468
85.4775191576065
85.6746396968909
85.8022927497373
85.9260310973823
86.1531337859005
86.4016438199747
86.5931892066476
86.7549365655405
86.8841160635655
87.0072711158005
87.1741819641576
87.3381802040921
87.4751873629474
87.6062612114066
87.7158675516111
87.8265271606205
87.937359038016
88.0076562881284
87.9211958175172
87.8695912532586
87.9866030211886
88.2488607522652
88.4288197350806
88.5523612027761
88.6548738677707
88.6620803205762
88.6312679734198
88.5865766758944
88.5488342239223
88.4925215885359
88.4333504080231
88.3524543102627
88.2498390788003
88.1100931007895
87.9490669559892
87.760412430714
87.5498448648406
87.3067058345053
87.0582102646025
86.7677403554604
86.4609993968372
86.1255324799297
85.8775436502879
85.6775854576835
85.4989845767358
85.3703189556765
85.2644395924193
85.2166005440552
85.2229538126095
85.344124348705
85.5462504208209
85.7464234904201
85.9424808033085
86.1410945012844
86.3612303935913
86.5597890493892
86.7304903434907
86.8715980235027
86.9687999376016
87.0031005710732
86.9804951341704
86.8812363796584
86.6954264705299
86.4002263230375
85.9843985492985
85.4132610047819
84.6913781900563
83.8200455570883
82.8154041998334
81.6636338582298
80.4055949360093
79.0767673987114
77.6980921334873
76.3297534974735
75.0170837322617
73.7721075590334
72.6602784625206
71.7084480859736
70.9391678661526
70.3675042947963
69.9977108015164
69.8240430737551
69.8207258994781
69.9465920280794
70.1613695508201
70.3784081388575
70.5523474466497
70.6308769878835
70.5934495894342
70.4501824538241
70.2148063963851
69.8946094059018
69.5202742109361
69.1639313379096
68.8490577931659
68.5922608739238
68.4205649960756
68.3522493304985
68.3818177446524
68.4993614834556
68.726523490003
69.0473306934616
69.4403487254139
69.8730357047561
70.3302667100197
70.8614699296702
71.4432899721852
72.0140728994614
72.5800026218117
73.130414544114
73.6726769925772
74.1858071699502
74.676497383296
75.1542780473421
75.615278008427
76.0398416172127
76.4301106897034
76.7907804342584
77.1323801301655
77.4413496530607
77.7162890585237
77.9598660940472
78.1773099647187
78.3655129223691
78.5239933753907
78.6539644303642
78.7599208768087
78.8342565080818
78.8815661929576
78.8904729013854
78.8737410307636
78.841667316395
78.7842358653247
78.6988078350546
78.6045640174659
78.5089435240515
78.408646279485
78.3083210537301
78.2315457195362
78.1680445755885
78.1117247591323
78.0775291041231
78.0656917363392
78.0835594555326
78.1315286753923
78.1866486213173
78.2345374598077
78.2873460669747
78.3652212096047
78.462460312454
78.5801483564357
78.6986965659672
78.8108569366136
78.9266725102731
79.0536924482263
79.188502185938
79.3338961900114
79.4980403123559
79.6780391243569
79.8528910230648
80.0243047955157
80.1900545142567
80.3504443317504
80.5020558284183
80.651489337124
80.789775567328
80.9237398377371
81.0503653780408
81.1698639055199
81.287957650905
81.4140372673859
81.531023347562
81.6365481854498
81.7356089788566
81.836576304474
81.9389135633435
82.0324703390758
82.1206969008275
82.2089272460131
82.2925315913915
82.3733773887286
82.4417495625225
82.504993818836
82.5645214612032
82.6302220650381
82.6921826222997
82.7390033500026
82.7820145018757
82.8221654496723
82.8446346683161
82.864797360355
82.8763658760492
82.8754559112566
82.8679160231194
82.8470503008099
82.804249098403
82.7372659297826
82.6511105870201
82.5694353330902
82.4735881322655
82.3585938850494
82.2388861172514
82.1242241120147
82.0216399418895
81.9379075504056
81.880739043383
81.8441083236318
81.8349832632794
81.8511417011841
81.8950678274428
81.9720340971544
82.0603932890799
82.1557908060467
82.2678508742014
82.3958666267573
82.5242130337638
82.6567494196644
82.7821151173
82.9160683748456
83.0537053036859
83.183456024646
83.311236267067
83.4339108056628
83.5521608884399
83.6642814238084
83.7781818070209
83.8866287211225
83.9899585462498
84.099830929834
84.2083222436993
84.3206295488574
84.4400952711809
84.5529144738248
84.6630322293434
84.7788692783137
84.8946261315376
85.008791818672
85.1120824776827
85.1983098775423
85.2827148216292
85.3678945306891
85.4319030440993
85.4800075687384
85.5228039301869
85.5586695270438
85.5756840098915
85.5932343133985
85.6060797229675
85.6046021013222
85.6029636229219
85.6128890512472
85.6027391578108
85.5849211797639
85.5797068977517
85.5751516519248
85.5669089892199
85.5608177905583
85.5616313383267
85.5588251344957
85.5492907338197
85.5537379027089
85.5659142967324
85.5692037085461
85.5639440632274
85.5676745413224
85.5689928441424
85.5802398765543
85.5898214367504
85.5863574724576
85.5827658169666
85.5878873571675
85.5996945647152
85.610607115695
85.6145783250345
85.6142446638224
85.6188996235265
85.6293680107062
85.6347759547798
85.6405338976243
85.6519054176519
85.6556654205104
85.6499972819542
85.6550663968966
85.6675175541608
85.675642952889
85.6755931574504
85.6765585163153
85.6959107956185
85.713489236867
85.7138601411881
85.7149516769719
85.7268395309032
85.7420154718409
85.7418095221085
85.7338913948564
85.724375102745
85.7142717454115
85.6943164218214
85.6573877323562
85.611770167712
85.5487933227179
85.4889236911621
85.4308809665818
85.3675473194487
85.31806101189
85.2712834008596
85.2282429290939
85.2150884049185
85.218457856733
85.2463473839811
85.291756844911
85.3294655913954
85.3699430380175
85.4227586346658
85.4776239600356
85.533725629192
85.5861594078764
85.6300189474934
85.6692556919691
85.7198865908171
85.7739452547984
85.8082298068709
85.8444848518393
85.8852799926717
85.9231618774632
85.9647511606083
86.0033785686535
86.0265461855801
86.0476773161442
86.0713190877261
86.1001675217063
86.1310073706292
86.1584069567881
86.1686270633501
86.1738732189113
86.1996693400269
86.2346226351477
86.2500539567706
86.2684069592012
86.3059500691545
86.3351429526359
86.3436868139781
86.350370931131
86.3648808114431
86.3776361937037
86.3775123108089
86.3822415539552
86.3894867339908
86.3821073932668
86.363502573047
86.3559140323544
86.3386417561551
86.3114898208576
86.2907498756901
86.2676359886898
86.2149787571489
86.1398783303081
86.0664074938087
85.9790117012874
85.8663132118246
85.7449380998973
85.6064820529767
85.4512262123821
85.2956905108207
85.1545423349686
85.0301662621053
84.9221799373331
84.8508514531597
84.8435383873346
84.8863486575682
84.9649499939272
85.0763446534375
85.2340909822808
85.4036098061151
85.5489166482235
85.6757397417475
85.7809854515407
85.8480531334717
85.8691429174349
85.8455643324763
85.7893901827683
85.7036951295775
85.6142754277929
85.5435769068509
85.5005813308548
85.479206104276
85.4786220737326
85.4962195659572
85.5424470443865
85.6233861445132
85.7148666610773
85.8004892874047
85.8917639115799
85.9901857084479
86.0878875564312
86.1727418633777
86.2505232513786
86.3238077250846
86.3993974380601
86.4699228750387
86.5280040047771
86.5866716961477
86.652345996419
86.7040599091239
86.7518025324684
86.8005323857746
86.8383461339271
86.8702561469286
86.9158556265031
86.9670954470146
87.0088197648133
87.0430977291871
87.074752372832
87.1107831498141
87.149519884862
87.1871341365493
87.2421574511613
87.2839777152028
87.2931664258803
87.3160518572559
87.3602247965454
87.3937749438752
87.4282675187254
87.4693954855548
87.5103751170428
87.5415170351358
87.5742508939472
87.6141891739943
87.649483306741
87.6845732859458
87.7172149876825
87.7480517699294
87.7759051059138
87.7991065920704
87.8350076371037
87.87806531496
87.9081690034991
87.9260202794893
87.9483566262847
87.960401661418
87.9713498553912
88.0024616123537
88.0277457247924
88.0353962985798
88.0411554909958
88.0372432991873
88.0194783665296
87.9988205104889
87.9694986518631
87.8980419290766
87.8049763331149
87.6941424504832
87.5481341342412
87.3802042853564
87.2063472386495
87.0270444771055
86.8618504532056
86.7536653285419
86.7139089367012
86.7405704147954
86.8247552537955
86.9095629951343
86.9942980038399
87.0710741180471
87.1153311166606
87.1600594428009
87.2180508282743
87.2756065808664
87.3399777300132
87.4003865114664
87.4644853364355
87.5224700580397
87.5704751546606
87.6345113531911
87.7055083154005
87.7590707442382
87.8017067612732
87.8390210151168
87.8765908341253
87.9186550383073
87.966006542695
87.9882073678253
87.9979679018924
88.0000962796658
88.0030199323762
88.0049084505914
88.0011419447943
87.9755702310412
87.9149446659607
87.8489997536746
87.7893422996813
87.7453697915057
87.682039668905
87.5910872454377
87.5217325504736
87.452163680109
87.3996828308713
87.3809633908
87.3569592935561
87.3303965102786
87.3408816002485
87.3872035489573
87.4418733742551
87.4956381642597
87.5524774014278
87.6209376053136
87.7039959031883
87.7770430207906
87.848100967394
87.9149033361636
87.9734456595827
88.0173673962566
88.0655568354846
88.1305160706866
88.1877150874246
88.2283311035614
88.2518645776454
88.2828879196342
88.3139925164569
88.3131038464786
88.3204977437451
88.3509075615176
88.3859941420026
88.4067207878564
88.4062810068997
88.3905719387824
88.3789102576443
88.3788204456057
88.3827542932515
88.3422777501454
88.2833969337069
88.2428278661199
88.2024305721877
88.130264623087
88.0312904629714
87.9182571036724
87.7968152976508
87.6754098885203
87.5314296769201
87.345686990433
87.1471282788502
86.9481978649191
86.7594743631543
86.564732319142
86.3519497094425
86.1218731773523
85.9063242037984
85.6913789767144
85.4724984067884
85.2885196583726
85.1486416575428
85.0221380164265
84.9331931875337
84.9016862955338
84.8796813267534
84.8605238739216
84.8726643590187
84.9149301884756
84.9989989132303
85.1122715033319
85.2323212008107
85.3319793868421
85.4265660164846
85.5311236779309
85.654673166522
85.8154191204335
85.9781614172677
86.1081512232434
86.2370718204325
86.4013555026163
86.5689310836033
86.6945689311366
86.8160072961513
86.9398924456898
87.0477867020438
87.1642678675657
87.2757231307123
87.381045620518
87.5094912759283
87.6218085733502
87.7050006046606
87.7431437669325
87.8119717914432
87.9148014874997
87.9657126633126
88.0030688234116
88.0763728464614
88.1371148106358
88.2000867741336
88.2703802475696
88.3140290763183
88.3527958810984
88.389775816347
88.4323110878989
88.48499749524
88.5315072175773
88.5772167446465
88.5921917184964
88.6165299643174
88.6650747698278
88.7050032913885
88.7391159410567
88.7861971998998
88.8275630161348
88.8382024623099
88.8357954815317
88.8452561111591
88.8829104527362
88.9062367018271
88.8815585329342
88.8633494597342
88.8892633713444
88.9603249145524
89.0100737830734
89.0192349749983
89.0115024404028
88.991932412088
88.9839423960111
89.003340112132
89.0452045187733
89.0711296759528
89.0690367500663
89.0852951662125
89.0936419911488
89.0984297976024
89.0949558566477
89.0687651729277
89.0295379652012
89.0014265334101
88.9948539009376
88.9797692906889
88.9906539943508
89.0458936374911
89.0425133423131
89.0111348276877
88.9936679542627
88.9207957896626
88.8153816234131
88.73512395808
88.6648695404072
88.6073369892331
88.543794030509
88.4439470444701
88.3425304661673
88.2620611975416
88.1685663290761
88.0832105068228
87.9969320077919
87.9180144491223
87.8284515257062
87.733099798992
87.6552058341732
87.5664203256046
87.4440362492309
87.3395569514953
87.2869855593915
87.2271931530236
87.0811764164349
86.9210747392657
86.7862422083522
86.7023039263876
86.6557959586003
86.5346582428498
86.379104726557
86.2597279709456
86.1372824345227
86.0211223103313
85.8997844624511
85.7843203198824
85.6503165065414
85.5204395526523
85.449168426766
85.4421204679487
85.4758031467303
85.529012703117
85.6130977222457
85.712967200877
85.8661560389455
86.0670491889832
86.1855649148836
86.2912477065875
86.467795680909
86.664845737991
86.7995825881052
86.9144820042908
87.0323813580822
87.1684010065335
87.3285196862415
87.4055573628551
87.4319650757119
87.4773590185415
87.5896765654851
87.7645320767137
87.8143601487669
87.795078269917
87.7950239077862
87.8138111343414
87.8729365115855
87.9533542371487
88.0142611041582
87.9517286267816
87.8446475823431
87.9522438416649
88.1222535369194
88.1154993974286
88.0132244544219
87.9874165191848
88.0774612521103
88.1238798684596
88.0031248406246
87.9247673393232
87.8337218041557
87.8049825066527
87.8748790567836
87.76123812677
87.5755235534483
87.5041030230735
87.4967479825059
87.48025966216
87.4624254349007
87.5124726996142
87.3472284519279
87.2193359281403
87.2768830534772
87.1765493203507
86.9398159397879
86.8980321255039
86.9903128271341
86.9214268257396
86.8367416214988
86.7489684596627
86.5680093344709
86.5596637517514
86.5018711044145
86.2278479826992
86.0513608402446
85.9571098705456
85.8460839563465
85.7340432713264
85.5924312665075
85.5442058176856
85.3722153170965
85.3884328470459
85.2396772182271
84.9007292670405
84.7121309040035
84.6937687884602
84.662427821871
84.2240562227132
83.8879632408109
83.5679905635531
83.0015003156044
82.5745511444857
82.4408557064107
82.2963097048483
82.3433116971999
82.2512091691016
81.8101639452383
81.6499256397064
81.5723458213701
81.1711563522475
