900
3999.43349933624
648.556783676147
1
2
8
0.00300164593003693
0.0031930857453374
0.00310055442334115
0.00271301194336308
0.00255914015608516
0.00275603624918787
0.00299937714832131
0.00310294189671943
0.003076814067708
0.00304412122127325
0.00282618378663227
0.00276868856169494
0.00311813171827823
0.00350240756783308
0.00349970513627836
0.00304176589023678
0.00313216257385407
0.00335030521837139
0.00335861674811865
0.00311750332316298
0.00298429317777605
0.00334727570873883
0.00319467693520292
0.00291338094099146
0.0030960549280655
0.00395080884027863
0.00402893796826954
0.00380539660492919
0.00340881123231778
0.0032280090849002
0.00362298876301664
0.00384449601075245
0.00366496546719732
0.00386799692747088
0.0037829173979363
0.00414339307682375
0.00388765024840696
0.00383515074488381
0.00375984132621804
0.00354246890348762
0.00352562837701015
0.00328895727870749
0.00414531739267399
0.00436369236486888
0.00378677251167326
0.00334599120224728
0.00324976277354058
0.00338453562517724
0.0037581159374069
0.00330623003422201
0.00328858748188567
0.00323441090664626
0.0036066745062033
0.00396463182634814
0.0036950292927257
0.00300521058074576
0.00277635260700682
0.00279376696207613
0.00308053133509048
0.00307793473358555
0.0031790154423687
0.00314776951249374
0.00321587890425428
0.00305447465848481
0.00317868663007464
0.00415866838605924
0.00441920159321478
0.00465376567726027
0.00417324194168119
0.00441497789429282
0.00462689271128133
0.00453925111643079
0.00444816306331782
0.00435668250818889
0.00411842522231224
0.00359890100557281
0.00396120357436437
0.00377815644574895
0.00351497777664267
0.00313974582648618
0.00310537820710776
0.00322535919254137
0.00384472260122733
0.00376921436421503
0.00361111838779169
0.00371460631697685
0.00386559341436598
0.00467380387643378
0.00478859199783997
0.00383097384613977
0.00377446010971274
0.00383232396464777
0.00447569018012011
0.00540729976573391
0.00572160748056588
0.00520691969891086
0.0043754535204675
0.00436424095594962
0.00491644498619841
0.00502747898457208
0.0050746845591928
0.00494354725208741
0.00567884072677565
0.0060421064416107
0.00521368307645086
0.00464946709412165
0.00453620205317221
0.00468303533708733
0.00502341406725735
0.00560655475192536
0.00548265400658486
0.00520911211031131
0.004936018521732
0.00462666632262451
0.00504742218779987
0.00508855029488536
0.00511828669772048
0.00506734528668045
0.00485778923025829
0.00509500987291736
0.00541073342420391
0.00537720965331083
0.00508483122964458
0.00513794021953955
0.00509262921192227
0.00512534902203903
0.00542093298070434
0.00566382831678696
0.00529409126226522
0.00507131623383718
0.00484956593731319
0.00510102033886295
0.00549786103184132
0.00567060851749248
0.00570605081422189
0.00533467169956651
0.00505411570749578
0.00545651331526389
0.00578271466602081
0.00551124368459867
0.00531134437360437
0.00515381487368516
0.00528073101762714
0.00561068349430267
0.00576085954983577
0.00574940433155977
0.00566818413546147
0.00598838187457877
0.00620063436382899
0.00590571461559348
0.00551907768705423
0.00566760431807378
0.00604241159014917
0.00604454057704661
0.00617715085802788
0.00620698341592051
0.00595543757984034
0.00602774184839916
0.00618230464614058
0.00580232232870683
0.00569878935371722
0.00603916503402366
0.00636776465268675
0.00648097689586384
0.00631655887051101
0.00565001643488263
0.00544450678732933
0.00575691766299711
0.00602553950720126
0.00621642134280353
0.00650621775014266
0.00644874717007357
0.00618350493861556
0.00607483700478572
0.00604440369652844
0.0059948700234029
0.00610005796260673
0.00617706566010616
0.00623930779948039
0.00647413945826135
0.00647185465960957
0.00649916718602692
0.00649392690415034
0.00646971150810942
0.00635924713722076
0.00644199254044348
0.00637120413374978
0.00618899921974714
0.00633078101241113
0.00642845131314527
0.0062248655755718
0.00609315320820296
0.00643484981935136
0.00667454105442034
0.00615926578180747
0.00587431944675701
0.00600135541612824
0.00615053237329079
0.00634171655280494
0.00627874562276185
0.00604768373620523
0.00616102310823234
0.00621499831958918
0.00618472164096133
0.00639076845017847
0.00643486607224954
0.00646984610727772
0.00658300308109491
0.00641263760750231
0.00616977073912653
0.00609033394340104
0.00616044649472891
0.00620869389119761
0.00639955852698783
0.00642485130920458
0.00633903125542511
0.00633710497489617
0.00625599986401508
0.00621362500100553
0.00651703270575604
0.00672225695819526
0.00651861572479167
0.00645673923030163
0.00648149791462777
0.00632806711401184
0.00643875601153801
0.00655055634016136
0.00651814920109227
0.00655071497900445
0.0064796313600995
0.00633607073596101
0.00648355299684148
0.0066133805862994
0.0065042479055698
0.00655352806118644
0.00661682400678418
0.00648460409328883
0.0064300968818766
0.0066010141382216
0.00659010459789796
0.00648749985481082
0.00649394702386834
0.00643857106996174
0.00642971760013562
0.00659936187226635
0.00666383392157778
0.0068114194928342
0.00685454470152247
0.00684399027645981
0.006853633374868
0.00682977795502698
0.00686413885505925
0.00691847237856957
0.00686270600969762
0.00684721782008182
0.00672008052363001
0.00656451793749098
0.00664857253134255
0.0067352171795605
0.00675494484640422
0.00672405192378032
0.0067004976697156
0.00662157018475378
0.00634187134499938
0.00621582182316802
0.00613781483163198
0.00619371865092275
0.00641076480420875
0.00641393160469029
0.00616291481371392
0.00606990729780279
0.00626071339559894
0.00632618512268831
0.00626796804758432
0.0062313351847406
0.00630470985965002
0.00642596984527132
0.0062821742487879
0.0060423630565956
0.00608724538809023
0.00628363959366625
0.00629914690808395
0.00625587578510929
0.00630936635973738
0.00646924326456182
0.00654011976527947
0.00646110426096033
0.00637280347325477
0.00628176267972536
0.00620540247386092
0.00617148834307606
0.0061539574029098
0.00605334039614813
0.00594295641336857
0.00599941619941752
0.00607323318677873
0.00594386861226905
0.00585732217866295
0.00593815905236251
0.00579459772320742
0.00574418769901633
0.00587896644859831
0.00583155230622236
0.0058257008100937
0.00591584266345833
0.00581113288518102
0.00572635652403118
0.00562925444054595
0.00553090617064864
0.00566637726265666
0.00569513123127104
0.00556043511153813
0.00556098910219153
0.00549416502239243
0.00541149196315315
0.00547948218254395
0.00544856242292994
0.00540306357870103
0.00553257799590809
0.00552003601224841
0.005525773268162
0.00551972991002393
0.00530757282987694
0.00524525359098154
0.00531925573241641
0.00539895242913903
0.00543586981230783
0.00519837276721344
0.00501119088733285
0.00508006134135325
0.00529109787975755
0.00533270149727704
0.00523340188592592
0.0051375873519805
0.00516001318866459
0.0050851809399826
0.00489866637377706
0.00494334317782633
0.00500525135183985
0.00495825598960617
0.00502962425257146
0.00500879776358265
0.00489263476947453
0.00493967463382774
0.00485701712977805
0.00473895941430077
0.00490458481505241
0.00488658885319939
0.00483527644223259
0.00490702349964693
0.00491376119988656
0.00478650373601321
0.00467816000490057
0.0047109225726114
0.00468664191234407
0.00461905113089753
0.00462425370416143
0.00466013048303102
0.00468642046147668
0.00457835857773945
0.00448402333644852
0.00456942468253195
0.00466800977596256
0.00447840409222924
0.00429995638974009
0.00446046990438172
0.00447005315402756
0.0042020156923707
0.00425564771093523
0.00444237139703427
0.00455076064725452
0.00447913876325774
0.00429901099701416
0.00419960243953721
0.00427773843941523
0.00436310145985779
0.004313821029826
0.00414269920273881
0.00412138178440117
0.0040808616172285
0.00415205972943325
0.00421110939771166
0.00398096548779967
0.00381383943572964
0.00386653799186124
0.00404974916219581
0.00413878364130116
0.00393805316945701
0.0039850692811609
0.00418138299534909
0.00412835078305959
0.00400871200383872
0.00396211106507354
0.00391638719203947
0.00401241848867939
0.00401158858693193
0.00390208134961029
0.00396051647060719
0.00425269117584985
0.00421971253956233
0.00400114826592692
0.00398909334608455
0.00394386771862947
0.00385016317404938
0.00383046586486821
0.00393575389520157
0.00381550795980479
0.00381128320026721
0.00387427324595138
0.00379287643278252
0.00382881288479904
0.00377863660828446
0.00382315281073791
0.00392080618842442
0.00378439369265861
0.0038750968098145
0.00379758385094891
0.00359730455107071
0.00372134633937821
0.003793791454931
0.00371546309362475
0.0037855495421232
0.00381711702735627
0.00362876467651136
0.0035600658802049
0.00369465975478293
0.00379506195493488
0.00375162713942128
0.00369068688174413
0.00370740836374828
0.00380003546934854
0.00372744396938928
0.00367042839976496
0.00378566527786811
0.00397454869877732
0.00379297054361443
0.00355697488823306
0.00353204440204419
0.00371629933009331
0.0034734709914611
0.00357681376484296
0.00370716544218747
0.00362352273166203
0.00359205962817503
0.00340480322478002
0.00337513778695654
0.003615556971398
0.00372282753049559
0.00361066316132966
0.00361337444384877
0.00353923436660268
0.00355945650166502
0.00385304847409983
0.00379891184048059
0.00353028639322201
0.0035089874829663
0.00360375863162011
0.00350809720039557
0.00336282167761357
0.0033573729337605
0.00341300008126044
0.00328186471832124
0.00328269125242397
0.00308193634037024
0.00278551757911865
0.00290499815285562
0.00306213493215202
0.00322508026051994
0.00322394140891196
0.00292118319758411
0.0027217332815451
0.0029264798051412
0.00284660210515531
0.0023665286988811
0.00266757070359458
0.00316632573247032
0.00304150517424168
0.00267088235492213
0.00294237470757021
0.00338927520590369
0.0026734962958849
0.00217150105101311
0.00236703820907883
0.00228133459116973
0.001853591136024
0.00194819937237376
0.00216869793451243
0.00265363550538803
0.00261371180931818
0.00203092070870267
0.00253479739658908
0.00223900029437706
0.00191844257698338
0.00223637542870313
0.00195262695140937
0.0016236542102121
0.00153616248344077
0.00213442073193656
0.00280773091804631
0.00269288499410376
0.00307155306694998
0.00336201135358011
0.00275673240448435
0.00243157519053929
0.00309931595743195
0.00302159690588277
0.00263344335733383
0.00275801218852626
0.00277956316520221
0.00273194462332176
0.0027544102392156
0.00301285358904276
0.00355740475255536
0.00352712408930753
0.0030490249765314
0.00267709981725384
0.00279031663695129
0.00296266046429155
0.00303479975209623
0.00271081140663436
0.00238521639667924
0.00230286456943376
0.00240026149264363
0.00248313043283828
0.00295451579459337
0.00272029205973981
0.00247169645208254
0.00232438420291826
0.00253685699182315
0.00280076063019474
0.00215032670533751
0.00191923413204765
0.00276008712184019
0.00290192301360565
0.0026628193652368
0.0025377707939037
0.00292793575505588
0.0033342214933547
0.00291947266727197
0.00198006397141789
0.00221220080411705
0.00286267623159855
0.00344611671122651
0.0036199447042536
0.00338506607638461
0.00280777232403595
0.00337059720943228
0.00284895974751274
0.00285266320589159
0.00320656642073092
0.00347176054302165
0.00389170458150146
0.00391099833532461
0.00349266603584231
0.00335994145024455
0.00341693861277012
0.00354200900806367
0.00345696826876125
0.00326016306701841
0.0033792806267205
0.00372101031952782
0.00352194481543179
0.00336340280813228
0.00313193572652651
0.00323036466413754
0.00362791185781563
0.00374799216804839
0.00353018660433935
0.00329163236658884
0.00341280063591315
0.00342162464353049
0.00366226508524199
0.00383080608697026
0.00369353251789471
0.00345819690250733
0.00318624618988259
0.00330090616595669
0.00402123838592379
0.00418091289419866
0.00371020794905991
0.00343798844003486
0.00359987367744161
0.00416793956450179
0.00433312169034412
0.00410684035031983
0.00375050196491346
0.00388181447826177
0.00394716362601414
0.003673281333366
0.00389613340392515
0.00410404152063532
0.00446728866136859
0.00435886884732867
0.00386028715485771
0.0040008613212399
0.0039371159115797
0.00405099338666411
0.00457340333896263
0.00450196762253089
0.00411085791566808
0.00420992337636991
0.00439384922886969
0.00462375180441094
0.00522694124052253
0.00558834422240399
0.00537692464470611
0.00517759603898512
0.00601325614582597
0.00666128533020386
0.00657494577386205
0.00647142560553117
0.00743585538818832
0.00951561989360119
0.00935539251131227
0.0086118717917883
0.00848295243377199
0.00934357232568135
0.00993251066124654
0.00915402982881004
0.00832660203009747
0.00907105590149893
0.010268838635145
0.0109200212886403
0.0116310252606162
0.0135769617984018
0.0154260739214717
0.0167392778814857
0.0174602477848049
0.0184433209449392
0.0197140987388725
0.0199122493776701
0.0185889152148088
0.0157540331428092
0.0154225313654218
0.0150155170285848
0.014109771364329
0.0142909016447143
0.0156377689874199
0.0170174120832972
0.0185444672392544
0.0213325131713823
0.0249350320509676
0.0276268051650459
0.0288602737902233
0.0287060794455756
0.0276299556152225
0.0253172241077137
0.0229742219676624
0.0209834472206057
0.0202348626854011
0.0191083860096004
0.0186380222726069
0.0196982255095341
0.0216299485389462
0.0247412750441459
0.0271042294136749
0.026845788524573
0.026315240138907
0.0265778622049806
0.0277960318613078
0.0261929169048624
0.0246421330744682
0.0231389821451417
0.0223719443257565
0.0222858626348732
0.0215931213634806
0.0195980154705255
0.0185535296864403
0.0196245376306373
0.0178002005489284
0.0164307406987086
0.0162105910438531
0.0162023946125575
0.0157686610397684
0.0126668615203807
0.0107587468051873
0.0103769747844312
0.0114648242796879
0.0110068707376772
0.0103037731566148
0.00989270545514316
0.010805316425425
0.0128298694726288
0.0150116944161932
0.0175328663588033
0.0189526012666666
0.0203810623594401
0.0236232135220778
0.0281814395849425
0.0332763485342579
0.0395435136445553
0.0455948076226499
0.0513469295293256
0.0538876201931355
0.053542281772272
0.0523632392584778
0.0507030871856839
0.0485158770388291
0.0456380467408628
0.0413571844687929
0.0389879360031321
0.0373139774104015
0.035852408723622
0.0350315663011752
0.0345978740560199
0.033537371452868
0.0326111729938584
0.0321025684426769
0.0310092575931093
0.0299504947160409
0.0293417910636812
0.0286233346277326
0.027666250926881
0.0267260794338058
0.0248758565875672
0.0226578280173691
0.0211276019323037
0.0198915896274785
0.0190388494010354
0.0185337259453386
0.0181214426309347
0.0179095008782405
0.018247321964206
0.0181754217179032
0.017223598004954
0.0162358098652529
0.0158084258837123
0.015799088594955
0.0158661285547564
0.0159773955130145
0.0160686847493377
0.0160039378801625
0.0157316660272393
0.015413216190122
0.0153256760964931
0.0154122641876651
0.0155358133736017
0.0155081729232555
0.0152520863490094
0.014636110374654
0.0138698593369527
0.013171840272267
0.0126479012642202
0.0125132987736817
0.0127186494848369
0.0126478953823681
0.0121490217060283
0.0116555206025952
0.0110577768554543
0.0103287552540115
0.0098127314608112
0.00948769309620336
0.00950740384068246
0.0100525456072995
0.0108274651371523
0.0118534519953838
0.0137929035075752
0.0150591072046407
0.0136836963553598
0.011368837797853
0.0101807097213237
0.0100964718521962
0.0105622285822853
0.0111546512872483
0.0116977404604149
0.0120653438082307
0.0120554389800033
0.0117086097296081
0.0110705883342621
0.0102313198582179
0.0096360065138077
0.00945721769268691
0.00961799892358668
0.00985791054839589
0.0101148265825699
0.0104587124921613
0.0111346892602776
0.0121583836025056
0.0127404424371232
0.0122710227113308
0.0111602685205524
0.0101458161327517
0.00946631424256311
0.00908502299101233
0.00914771023996481
0.00989857879837377
0.0106975528032839
0.0104920896512963
0.00983013200834623
0.00943955318480814
0.00915078592782997
0.00895234994193836
0.00885191084663662
0.00862351858434502
0.0084530935184984
0.00837433510411933
0.00864370477732324
0.0104808310901703
0.0137133731513682
0.015146760292738
0.0136140662295706
0.0114875109058618
0.0103277218455958
0.0100343999143394
0.0101862303722949
0.0109732880899438
0.0120782854316125
0.0119410114772932
0.0114025706713834
0.0117655625726729
0.0120032776380367
0.0113995703790455
0.0119805753096537
0.0146942839810823
0.0165563224099838
0.0154850243601308
0.0126173832666709
0.0107173782442509
0.0101939500086305
0.010017916390968
0.0101162738102563
0.0103476962530131
0.0102378323177361
0.00986497104720807
0.00957444594119481
0.0093840646652496
0.00932742178994874
0.00931974417380229
0.00939540830851934
0.0094324777605358
0.00934035122772325
0.0093034174823927
0.00944195559187382
0.00961923985367935
0.00974117997438516
0.0101197214302176
0.0107028162661179
0.0111599469540188
0.0120122294559058
0.0134691660366729
0.0139221993626868
0.0128057133557683
0.0115445300565048
0.0108508487313281
0.010815643184594
0.0112483640225062
0.0122033755618015
0.0133349052979304
0.0139445195166715
0.0140181515082474
0.0139591862865472
0.0143637480527991
0.0152613118476951
0.0157696538065234
0.0160926558291726
0.0163980773228631
0.0172563722414165
0.0199771125446095
0.0223891690803604
0.0212753186157622
0.0192859544222755
0.0187118529944237
0.0193201960585134
0.0197877465991544
0.0204275804067218
0.0223181059824144
0.0236675043792838
0.0230107409092504
0.0222620422866591
0.0205327105027872
0.0181826882589144
0.0171362510607084
0.0173089417239497
0.0185000719990529
0.0201941111354261
0.0213675739252051
0.0233664816889517
0.0268833283881598
0.0319750398199265
0.0386450786881576
0.0447451307739087
0.0449753133279762
0.03951845317454
0.0337688522649426
0.0295136437124883
0.0278951345719663
0.0290456974463737
0.0312902427963649
0.0333694259192991
0.0328607169761675
0.0323893714372109
0.0342751683414541
0.0383177690863972
0.0438435494327946
0.0466265166356877
0.0483147933725057
0.0503893122862462
0.0529345454843101
0.0542430139013833
0.0494610858982275
