No.,Pos. [°2Th.],Iobs [cts],Icalc [cts],Iback [cts],CT [s],ESD
1,4.0099,0.0000, , ,195.2635,255.0640
2,4.0359,-2434.9350, , ,195.2635,248.9011
3,4.0619,-3715.5130, , ,195.2635,244.9495
4,4.0879,-4596.8910, , ,195.2635,241.7601
5,4.1139,-4354.9170, , ,195.2635,240.8714
6,4.1399,-4657.1200, , ,195.2635,238.8428
7,4.1659,-4648.7460, , ,195.2635,237.4517
8,4.1919,-4207.6230, , ,195.2635,236.9673
9,4.2179,-2471.8480, , ,195.2635,239.2036
10,4.2439,-1373.9930, , ,195.2635,240.0943
11,4.2699,696.8266, , ,195.2635,242.9330
12,4.2959,3254.4740, , ,195.2635,246.7275
13,4.3219,7160.0990, , ,195.2635,253.1411
14,4.3479,11643.9500, , ,195.2635,260.5084
15,4.3739,18069.8100, , ,195.2635,271.2763
16,4.3999,25656.4300, , ,195.2635,283.6861
17,4.4259,36395.0900, , ,195.2635,300.8601
18,4.4519,50629.7600, , ,195.2635,322.5706
19,4.4779,70276.9400, , ,195.2635,350.7126
20,4.5039,96622.9700, , ,195.2635,385.5460
21,4.5299,124344.3000, , ,195.2635,419.1269
22,4.5559,144404.9000, , ,195.2635,441.6201
23,4.5819,130166.4000, , ,195.2635,424.3702
24,4.6079,76840.8600, , ,195.2635,355.0563
25,4.6339,36761.6800, , ,195.2635,292.0379
26,4.6599,19067.6200, , ,195.2635,258.6356
27,4.6859,11757.8000, , ,195.2635,242.6580
28,4.7119,7660.1700, , ,195.2635,232.5632
29,4.7379,5116.2730, , ,195.2635,225.4182
30,4.7639,3176.9130, , ,195.2635,219.4211
31,4.7899,2090.7440, , ,195.2635,215.2465
32,4.8159,1358.0570, , ,195.2635,211.8254
33,4.8419,657.1327, , ,195.2635,208.4243
34,4.8679,298.8849, , ,195.2635,205.8010
35,4.8939,141.0877, , ,195.2635,203.6366
36,4.9199,155.4565, , ,195.2635,201.8758
37,4.9459,49.0297, , ,195.2635,199.7975
38,4.9719,-207.1164, , ,195.2635,197.8714
39,4.9979,-194.7407, , ,195.2635,196.6105
40,5.0239,-150.3526, , ,195.2635,195.4234
41,5.0499,-163.3397, , ,195.2635,194.0813
42,5.0759,-205.7639, , ,195.2635,192.6534
43,5.1019,-351.5861, , ,195.2635,190.9444
44,5.1279,-297.1033, , ,195.2635,189.7484
45,5.1539,-15.9705, , ,195.2635,189.1449
46,5.1799,37.1935, , ,195.2635,187.9340
47,5.2059,-139.5594, , ,195.2635,186.9516
48,5.2319,29.5011, , ,195.2635,186.8914
49,5.2579,109.9083, , ,195.2635,186.5938
50,5.2839,-35.5194, , ,195.2635,185.6886
51,5.3099,-1.6697, , ,195.2635,185.2635
52,5.3359,43.0960, , ,195.2635,184.8669
53,5.3619,56.2152, , ,195.2635,184.3836
54,5.3879,88.4327, , ,195.2635,183.9510
55,5.4139,18.1884, , ,195.2635,183.2381
56,5.4399,-83.0138, , ,195.2635,182.4557
57,5.4659,-124.8443, , ,195.2635,181.8334
58,5.4919,-153.6393, , ,195.2635,181.2448
59,5.5179,-207.2659, , ,195.2635,180.5857
60,5.5439,55.2632, , ,195.2635,180.8005
61,5.5699,254.3482, , ,195.2635,180.8397
62,5.5959,88.1478, , ,195.2635,179.8664
63,5.6219,47.5585, , ,195.2635,179.2385
64,5.6479,-117.8580, , ,195.2635,178.2586
65,5.6739,-113.9776, , ,195.2635,178.0606
66,5.6999,114.4611, , ,195.2635,178.4925
67,5.7259,97.4094, , ,195.2635,178.2360
68,5.7519,147.2806, , ,195.2635,178.1671
69,5.7779,0.3218, , ,195.2635,177.5446
70,5.8039,-64.6819, , ,195.2635,177.1515
71,5.8299,-146.2912, , ,195.2635,176.7105
72,5.8559,-111.8420, , ,195.2635,176.5973
73,5.8819,97.1220, , ,195.2635,176.9777
74,5.9079,36.3404, , ,195.2635,176.8286
75,5.9339,-27.8192, , ,195.2635,176.6699
76,5.9599,-120.9078, , ,195.2635,176.4290
77,5.9859,-19.9833, , ,195.2635,176.7375
78,6.0119,-143.0134, , ,195.2635,176.4118
79,6.0379,22.6420, , ,195.2635,176.9034
80,6.0639,-66.4891, , ,195.2635,176.6741
81,6.0899,-11.1289, , ,195.2635,176.8534
82,6.1159,395.2927, , ,195.2635,178.0212
83,6.1419,709.7850, , ,195.2635,178.8541
84,6.1679,986.7088, , ,195.2635,179.5785
85,6.1939,1784.5110, , ,195.2635,181.7387
86,6.2199,2354.8580, , ,195.2635,183.2541
87,6.2459,3495.6480, , ,195.2635,186.2943
88,6.2719,5026.4610, , ,195.2635,190.3132
89,6.2979,7320.7900, , ,195.2635,196.2044
90,6.3239,10360.1500, , ,195.2635,203.7603
91,6.3499,14883.4000, , ,195.2635,214.5326
92,6.3759,21229.3400, , ,195.2635,228.8076
93,6.4019,29237.8100, , ,195.2635,245.6504
94,6.4279,37329.0400, , ,195.2635,261.5685
95,6.4539,42409.3700, , ,195.2635,271.0740
96,6.4799,37050.8300, , ,195.2635,260.9700
97,6.5059,20774.1500, , ,195.2635,227.6211
98,6.5319,10077.1200, , ,195.2635,202.7241
99,6.5579,6456.7380, , ,195.2635,193.5444
100,6.5839,4715.4770, , ,195.2635,188.9468
101,6.6099,3531.5840, , ,195.2635,185.6729
102,6.6359,2771.6970, , ,195.2635,183.4992
103,6.6619,2313.1180, , ,195.2635,182.1286
104,6.6879,1823.5890, , ,195.2635,180.6619
105,6.7139,1394.3300, , ,195.2635,179.3513
106,6.7399,1160.3210, , ,195.2635,178.5786
107,6.7659,788.3171, , ,195.2635,177.4140
108,6.7919,771.7964, , ,195.2635,177.2474
109,6.8179,450.0320, , ,195.2635,176.2167
110,6.8439,529.9867, , ,195.2635,176.2276
111,6.8699,657.3707, , ,195.2635,176.3731
112,6.8959,521.7036, , ,195.2635,175.7717
113,6.9219,469.8552, , ,195.2635,175.4073
114,6.9479,281.8845, , ,195.2635,174.6530
115,6.9739,390.1944, , ,195.2635,174.7451
116,6.9999,104.9034, , ,195.2635,173.7080
117,7.0259,132.9495, , ,195.2635,173.5696
118,7.0519,297.7414, , ,195.2635,173.8249
119,7.0779,161.5772, , ,195.2635,173.1182
120,7.1039,129.0477, , ,195.2635,172.7088
121,7.1299,152.1354, , ,195.2635,172.4598
122,7.1559,69.3348, , ,195.2635,171.9027
123,7.1819,-75.5554, , ,195.2635,171.1625
124,7.2079,188.4139, , ,195.2635,171.6145
125,7.2339,212.7050, , ,195.2635,171.3674
126,7.2599,39.8178, , ,195.2635,170.5428
127,7.2859,-143.6099, , ,195.2635,169.6832
128,7.3119,21.0668, , ,195.2635,170.0314
129,7.3379,-114.2335, , ,195.2635,169.4962
130,7.3639,-45.6972, , ,195.2635,169.5615
131,7.3899,32.1590, , ,195.2635,169.6543
132,7.4159,-124.5103, , ,195.2635,169.0547
133,7.4419,-183.5378, , ,195.2635,168.7426
134,7.4679,78.0723, , ,195.2635,169.3791
135,7.4939,138.9374, , ,195.2635,169.4218
136,7.5199,159.2380, , ,195.2635,169.3448
137,7.5459,249.8541, , ,195.2635,169.3989
138,7.5719,520.7936, , ,195.2635,169.9843
139,7.5979,741.3836, , ,195.2635,170.4199
140,7.6239,1080.5440, , ,195.2635,171.2012
141,7.6499,1485.6970, , ,195.2635,172.1706
142,7.6759,1969.5670, , ,195.2635,173.3617
143,7.7019,2908.0010, , ,195.2635,175.8421
144,7.7279,4187.4640, , ,195.2635,179.2418
145,7.7539,6076.3670, , ,195.2635,184.2396
146,7.7799,9017.3330, , ,195.2635,191.8669
147,7.8059,13422.6400, , ,195.2635,202.8446
148,7.8319,19508.3000, , ,195.2635,217.1620
149,7.8579,26944.5800, , ,195.2635,233.5023
150,7.8839,33915.9700, , ,195.2635,247.8355
151,7.9099,36879.8600, , ,195.2635,253.6021
152,7.9359,30635.3400, , ,195.2635,240.8261
153,7.9619,18083.1400, , ,195.2635,213.0088
154,7.9879,8926.0240, , ,195.2635,190.1140
155,8.0139,5045.4080, , ,195.2635,179.3448
156,8.0399,3400.1920, , ,195.2635,174.4167
157,8.0659,2456.6660, , ,195.2635,171.4045
158,8.0919,1759.8950, , ,195.2635,169.0697
159,8.1179,1270.5140, , ,195.2635,167.3230
160,8.1439,925.5397, , ,195.2635,165.9935
161,8.1699,803.5376, , ,195.2635,165.3290
162,8.1959,567.5099, , ,195.2635,164.3152
163,8.2219,359.5621, , ,195.2635,163.3811
164,8.2479,131.8763, , ,195.2635,162.2794
165,8.2739,184.1897, , ,195.2635,162.0365
166,8.2999,225.1799, , ,195.2635,161.7582
167,8.3259,35.0771, , ,195.2635,160.7623
168,8.3519,36.0802, , ,195.2635,160.3572
169,8.3779,41.5468, , ,195.2635,159.9651
170,8.4039,-72.5644, , ,195.2635,159.1968
171,8.4299,-1.0141, , ,195.2635,159.0097
172,8.4559,-19.2439, , ,195.2635,158.5394
173,8.4819,64.1760, , ,195.2635,158.4893
174,8.5079,-22.1721, , ,195.2635,157.9024
175,8.5339,-5.4044, , ,195.2635,157.6407
176,8.5599,109.0648, , ,195.2635,157.6887
177,8.5859,-27.3249, , ,195.2635,156.9395
178,8.6119,19.2290, , ,195.2635,156.7713
179,8.6379,64.8341, , ,195.2635,156.5998
180,8.6639,52.9193, , ,195.2635,156.2442
181,8.6899,-135.4040, , ,195.2635,155.3209
182,8.7159,39.2755, , ,195.2635,155.7567
183,8.7419,44.7822, , ,195.2635,155.6488
184,8.7679,129.0173, , ,195.2635,155.7937
185,8.7939,97.0785, , ,195.2635,155.5655
186,8.8199,224.6042, , ,195.2635,155.8494
187,8.8459,454.3173, , ,195.2635,156.4597
188,8.8719,485.2510, , ,195.2635,156.4336
189,8.8979,838.5127, , ,195.2635,157.4345
190,8.9239,1120.5900, , ,195.2635,158.2043
191,8.9499,1578.3450, , ,195.2635,159.4505
192,8.9759,2313.6800, , ,195.2635,161.5485
193,9.0019,3775.7480, , ,195.2635,165.8255
194,9.0279,5771.2480, , ,195.2635,171.5567
195,9.0539,8810.3360, , ,195.2635,180.0247
196,9.0799,12553.3000, , ,195.2635,189.9736
197,9.1059,16414.2900, , ,195.2635,199.7225
198,9.1319,18950.4500, , ,195.2635,205.8236
199,9.1579,17324.5200, , ,195.2635,201.6817
200,9.1839,10627.3000, , ,195.2635,184.1641
201,9.2099,4832.2150, , ,195.2635,167.5095
202,9.2359,2686.0080, , ,195.2635,160.7835
203,9.2619,1762.5180, , ,195.2635,157.6894
204,9.2879,1208.6860, , ,195.2635,155.7249
205,9.3139,892.1789, , ,195.2635,154.5052
206,9.3399,564.5686, , ,195.2635,153.2395
207,9.3659,208.3853, , ,195.2635,151.8693
208,9.3919,425.4938, , ,195.2635,152.3794
209,9.4179,414.8216, , ,195.2635,152.0663
210,9.4439,217.9877, , ,195.2635,151.1379
211,9.4699,268.6556, , ,195.2635,151.0253
212,9.4959,111.2890, , ,195.2635,150.2219
213,9.5219,51.1677, , ,195.2635,149.7392
214,9.5479,301.2898, , ,195.2635,150.2907
215,9.5739,65.9360, , ,195.2635,149.2222
216,9.5999,32.8117, , ,195.2635,148.8270
217,9.6259,-61.8658, , ,195.2635,148.2233
218,9.6519,-136.5669, , ,195.2635,147.7486
219,9.6779,296.8231, , ,195.2635,148.9875
220,9.7039,96.9012, , ,195.2635,148.0931
221,9.7299,214.9787, , ,195.2635,148.2696
222,9.7559,152.3761, , ,195.2635,147.8360
223,9.7819,159.1955, , ,195.2635,147.6365
224,9.8079,-163.3666, , ,195.2635,146.3154
225,9.8339,-135.4633, , ,195.2635,146.1859
226,9.8599,114.4110, , ,195.2635,146.8142
227,9.8859,111.0353, , ,195.2635,146.5733
228,9.9119,-0.7552, , ,195.2635,145.9611
229,9.9379,21.3305, , ,195.2635,145.8061
230,9.9639,52.6561, , ,195.2635,145.6826
231,9.9899,95.9795, , ,195.2635,145.6003
232,10.0159,197.2928, , ,195.2635,145.7171
233,10.0419,64.6862, , ,195.2635,145.0295
234,10.0679,267.8379, , ,195.2635,145.4971
235,10.0939,332.8224, , ,195.2635,145.4891
236,10.1199,504.0239, , ,195.2635,145.8457
237,10.1459,866.2117, , ,195.2635,146.8532
238,10.1719,1335.5100, , ,195.2635,148.2155
239,10.1979,1595.6750, , ,195.2635,148.8647
240,10.2239,1659.2770, , ,195.2635,148.8523
241,10.2499,1388.7420, , ,195.2635,147.7131
242,10.2759,904.9867, , ,195.2635,145.8359
243,10.3019,345.9286, , ,195.2635,143.6723
244,10.3279,41.1998, , ,195.2635,142.3717
245,10.3539,81.6588, , ,195.2635,142.1951
246,10.3799,183.6162, , ,195.2635,142.2346
247,10.4059,12.6687, , ,195.2635,141.3117
248,10.4319,-77.7007, , ,195.2635,140.6695
249,10.4579,-28.8093, , ,195.2635,140.5207
250,10.4839,32.0942, , ,195.2635,140.4146
251,10.5099,80.9894, , ,195.2635,140.2656
252,10.5359,-35.1763, , ,195.2635,139.5261
253,10.5619,-60.4744, , ,195.2635,139.1098
254,10.5879,18.2170, , ,195.2635,139.2679
255,10.6139,3.1272, , ,195.2635,139.0892
256,10.6399,12.2442, , ,195.2635,138.9973
257,10.6659,69.9430, , ,195.2635,139.0801
258,10.6919,6.1901, , ,195.2635,138.7258
259,10.7179,-61.7299, , ,195.2635,138.3556
260,10.7439,12.4852, , ,195.2635,138.4984
261,10.7699,30.3709, , ,195.2635,138.4378
262,10.7959,-7.0588, , ,195.2635,138.1772
263,10.8219,-8.0197, , ,195.2635,138.1075
264,10.8479,-13.2526, , ,195.2635,138.0223
265,10.8739,87.5541, , ,195.2635,138.3209
266,10.8999,122.0115, , ,195.2635,138.3794
267,10.9259,133.1436, , ,195.2635,138.3535
268,10.9519,203.8922, , ,195.2635,138.5429
269,10.9779,332.0883, , ,195.2635,138.9390
270,11.0039,621.8597, , ,195.2635,139.9126
271,11.0299,958.7698, , ,195.2635,141.0466
272,11.0559,1699.6780, , ,195.2635,143.5095
273,11.0819,2626.1850, , ,195.2635,146.5654
274,11.1079,4152.5190, , ,195.2635,151.5509
275,11.1339,6282.7500, , ,195.2635,158.2966
276,11.1599,8713.1860, , ,195.2635,165.6749
277,11.1859,10710.4900, , ,195.2635,171.4800
278,11.2119,10771.3000, , ,195.2635,171.5405
279,11.2379,7553.6450, , ,195.2635,161.7665
280,11.2639,4008.1290, , ,195.2635,150.2758
281,11.2899,1898.7070, , ,195.2635,142.9452
282,11.3159,1199.3400, , ,195.2635,140.3349
283,11.3419,741.6911, , ,195.2635,138.5502
284,11.3679,358.5815, , ,195.2635,137.0145
285,11.3939,297.3228, , ,195.2635,136.6442
286,11.4199,123.7972, , ,195.2635,135.8603
287,11.4459,281.0935, , ,195.2635,136.2910
288,11.4719,163.4366, , ,195.2635,135.7111
289,11.4979,-111.5541, , ,195.2635,134.5453
290,11.5239,-29.9910, , ,195.2635,134.6551
291,11.5499,-174.5502, , ,195.2635,133.9233
292,11.5759,45.8674, , ,195.2635,134.5506
293,11.6019,-100.8721, , ,195.2635,133.8100
294,11.6279,25.4970, , ,195.2635,134.0876
295,11.6539,145.9803, , ,195.2635,134.3428
296,11.6799,-119.8538, , ,195.2635,133.1546
297,11.7059,-43.7005, , ,195.2635,133.2453
298,11.7319,-37.8852, , ,195.2635,133.0718
299,11.7579,98.1767, , ,195.2635,133.3598
300,11.7839,84.8690, , ,195.2635,133.0872
301,11.8099,-124.9166, , ,195.2635,132.0723
302,11.8359,-133.8619, , ,195.2635,131.8135
303,11.8619,73.0075, , ,195.2635,132.3720
304,11.8879,-8.2145, , ,195.2635,131.8400
305,11.9139,126.9614, , ,195.2635,132.1273
306,11.9399,-147.6595, , ,195.2635,130.8575
307,11.9659,61.9955, , ,195.2635,131.4306
308,11.9919,59.1885, , ,195.2635,131.3353
309,12.0179,-201.6259, , ,195.2635,130.2533
310,12.0439,-56.2291, , ,195.2635,130.7253
311,12.0699,-99.4891, , ,195.2635,130.4746
312,12.0959,-202.1685, , ,195.2635,129.9951
313,12.1219,-183.1888, , ,195.2635,129.9826
314,12.1479,-48.5340, , ,195.2635,130.4144
315,12.1739,-8.0153, , ,195.2635,130.4845
316,12.1999,-57.0282, , ,195.2635,130.2113
317,12.2259,105.3445, , ,195.2635,130.6582
318,12.2519,-8.8308, , ,195.2635,130.0447
319,12.2779,-9.0494, , ,195.2635,129.8677
320,12.3039,-47.9940, , ,195.2635,129.5411
321,12.3299,-72.9657, , ,195.2635,129.2677
322,12.3559,7.2857, , ,195.2635,129.4010
323,12.3819,-42.4646, , ,195.2635,129.0314
324,12.4079,8.4668, , ,195.2635,129.0513
325,12.4339,54.2672, , ,195.2635,129.0514
326,12.4599,-19.5359, , ,195.2635,128.6555
327,12.4859,-79.4679, , ,195.2635,128.3125
328,12.5119,18.5947, , ,195.2635,128.5843
329,12.5379,53.3216, , ,195.2635,128.6096
330,12.5639,169.5379, , ,195.2635,128.9513
331,12.5899,28.7014, , ,195.2635,128.2941
332,12.6159,-50.5003, , ,195.2635,127.8747
333,12.6419,82.9901, , ,195.2635,128.2857
334,12.6679,47.7654, , ,195.2635,128.0381
335,12.6939,-31.2676, , ,195.2635,127.5359
336,12.7199,-135.0160, , ,195.2635,126.9343
337,12.7459,-71.3066, , ,195.2635,126.9909
338,12.7719,-93.4848, , ,195.2635,126.7090
339,12.7979,-159.2635, , ,195.2635,126.2540
340,12.8239,-104.4901, , ,195.2635,126.2755
341,12.8499,-97.5120, , ,195.2635,126.1077
342,12.8759,-130.8710, , ,195.2635,125.7794
343,12.9019,-25.0730, , ,195.2635,126.0037
344,12.9279,117.3727, , ,195.2635,126.4438
345,12.9539,133.7328, , ,195.2635,126.3846
346,12.9799,64.6823, , ,195.2635,125.9868
347,13.0059,-18.9524, , ,195.2635,125.5297
348,13.0319,87.7303, , ,195.2635,125.8295
349,13.0579,135.0187, , ,195.2635,125.8929
350,13.0839,-24.5364, , ,195.2635,125.1325
351,13.1099,31.9913, , ,195.2635,125.2331
352,13.1359,10.9334, , ,195.2635,125.0237
353,13.1619,-40.0712, , ,195.2635,124.7955
354,13.1879,-20.0559, , ,195.2635,124.8517
355,13.2139,-1.7792, , ,195.2635,124.9008
356,13.2399,21.1179, , ,195.2635,124.9685
357,13.2659,6.2455, , ,195.2635,124.8849
358,13.2919,83.5987, , ,195.2635,125.1703
359,13.3179,11.7183, , ,195.2635,124.8588
360,13.3439,-10.8211, , ,195.2635,124.7445
361,13.3699,4.7260, , ,195.2635,124.7827
362,13.3959,-40.4841, , ,195.2635,124.6290
363,13.4219,107.8607, , ,195.2635,125.2502
364,13.4479,207.9559, , ,195.2635,125.6766
365,13.4739,198.8466, , ,195.2635,125.6677
366,13.4999,272.7713, , ,195.2635,125.9888
367,13.5259,438.9054, , ,195.2635,126.6736
368,13.5519,598.7890, , ,195.2635,127.3301
369,13.5779,925.8494, , ,195.2635,128.6348
370,13.6039,1607.8740, , ,195.2635,131.2852
371,13.6299,2752.4080, , ,195.2635,135.5340
372,13.6559,4401.6840, , ,195.2635,141.4491
373,13.6819,6543.0160, , ,195.2635,148.7894
374,13.7079,8389.0380, , ,195.2635,154.8336
375,13.7339,9037.8850, , ,195.2635,156.8802
376,13.7599,7600.0790, , ,195.2635,152.1930
377,13.7859,4718.1240, , ,195.2635,142.3723
378,13.8119,2529.1280, , ,195.2635,134.4246
379,13.8379,1371.3960, , ,195.2635,130.0052
380,13.8639,858.0859, , ,195.2635,127.9733
381,13.8899,436.8819, , ,195.2635,126.2738
382,13.9159,482.6672, , ,195.2635,126.4119
383,13.9419,258.2797, , ,195.2635,125.4779
384,13.9679,159.0776, , ,195.2635,125.0385
385,13.9939,114.6512, , ,195.2635,124.8171
386,14.0199,-149.0945, , ,195.2635,123.7121
387,14.0459,111.6705, , ,195.2635,124.7179
388,14.0719,21.3296, , ,195.2635,124.3114
389,14.0979,-34.6779, , ,195.2635,123.9641
390,14.1239,7.8450, , ,195.2635,124.0137
391,14.1499,-28.6066, , ,195.2635,123.7446
392,14.1759,-61.7214, , ,195.2635,123.4884
393,14.2019,-104.6114, , ,195.2635,123.1920
394,14.2279,-93.1896, , ,195.2635,123.1157
395,14.2539,-99.4276, , ,195.2635,122.9675
396,14.2799,-114.0637, , ,195.2635,122.7850
397,14.3059,49.6974, , ,195.2635,123.3276
398,14.3319,70.8330, , ,195.2635,123.3007
399,14.3579,6.5958, , ,195.2635,122.9270
400,14.3839,28.7334, , ,195.2635,122.9040
401,14.4099,-99.9411, , ,195.2635,122.2659
402,14.4359,-161.0757, , ,195.2635,121.9017
403,14.4619,68.9278, , ,195.2635,122.7284
404,14.4879,-45.7140, , ,195.2635,122.1468
405,14.5139,-23.9045, , ,195.2635,122.1224
406,14.5399,9.6829, , ,195.2635,122.1462
407,14.5659,5.2294, , ,195.2635,122.0560
408,14.5919,-45.3199, , ,195.2635,121.7767
409,14.6179,48.9422, , ,195.2635,122.0913
410,14.6439,-125.2495, , ,195.2635,121.3035
411,14.6699,-62.8284, , ,195.2635,121.4882
412,14.6959,18.0217, , ,195.2635,121.7485
413,14.7219,-27.0519, , ,195.2635,121.4910
414,14.7479,-33.6480, , ,195.2635,121.3915
415,14.7739,-33.0847, , ,195.2635,121.3215
416,14.7999,103.3458, , ,195.2635,121.7694
417,14.8259,-33.0074, , ,195.2635,121.0945
418,14.8519,61.3319, , ,195.2635,121.3700
419,14.8779,117.7384, , ,195.2635,121.4887
420,14.9039,-1.3945, , ,195.2635,120.8835
421,14.9299,28.3509, , ,195.2635,120.8926
422,14.9559,30.7515, , ,195.2635,120.7885
423,14.9819,-85.9708, , ,195.2635,120.1898
424,15.0079,-42.3400, , ,195.2635,120.2566
425,15.0339,57.3917, , ,195.2635,120.6402
426,15.0599,94.9143, , ,195.2635,120.7653
427,15.0859,-28.6037, , ,195.2635,120.2223
428,15.1119,-90.7571, , ,195.2635,119.9329
429,15.1379,-43.9007, , ,195.2635,120.0976
430,15.1639,5.2983, , ,195.2635,120.2718
431,15.1899,1.1165, , ,195.2635,120.2239
432,15.2159,48.3067, , ,195.2635,120.3895
433,15.2419,-60.2479, , ,195.2635,119.9073
434,15.2679,52.0008, , ,195.2635,120.2294
435,15.2939,-36.6329, , ,195.2635,119.7146
436,15.3199,-103.8731, , ,195.2635,119.2873
437,15.3459,-98.5845, , ,195.2635,119.1632
438,15.3719,46.0759, , ,195.2635,119.6229
439,15.3979,-51.7092, , ,195.2635,119.0670
440,15.4239,4.1357, , ,195.2635,119.1550
441,15.4499,70.2392, , ,195.2635,119.2859
442,15.4759,-84.2672, , ,195.2635,118.4894
443,15.5019,-14.6085, , ,195.2635,118.8269
444,15.5279,31.3453, , ,195.2635,119.0640
445,15.5539,-25.6675, , ,195.2635,118.8683
446,15.5799,4.9281, , ,195.2635,119.0408
447,15.6059,39.2612, , ,195.2635,119.2287
448,15.6319,-51.0778, , ,195.2635,118.8932
449,15.6579,-45.8675, , ,195.2635,118.9590
450,15.6839,13.2732, , ,195.2635,119.2511
451,15.7099,28.9148, , ,195.2635,119.3604
452,15.7359,33.7996, , ,195.2635,119.3600
453,15.7619,48.3232, , ,195.2635,119.3998
454,15.7879,124.2941, , ,195.2635,119.6967
455,15.8139,309.2713, , ,195.2635,120.4461
456,15.8399,538.8308, , ,195.2635,121.3748
457,15.8659,567.6406, , ,195.2635,121.4728
458,15.8919,457.2431, , ,195.2635,120.9969
459,15.9179,389.0798, , ,195.2635,120.6942
460,15.9439,202.9086, , ,195.2635,119.8996
461,15.9699,43.1174, , ,195.2635,119.2104
462,15.9959,14.0349, , ,195.2635,119.0674
463,16.0219,-89.1786, , ,195.2635,118.6121
464,16.0479,-41.5553, , ,195.2635,118.7916
465,16.0739,21.1394, , ,195.2635,119.0342
466,16.0999,60.2527, , ,195.2635,119.1774
467,16.1259,98.5019, , ,195.2635,119.3168
468,16.1519,-24.9769, , ,195.2635,118.7772
469,16.1779,-26.6257, , ,195.2635,118.7492
470,16.2039,-47.4462, , ,195.2635,118.6315
471,16.2299,85.9800, , ,195.2635,119.1627
472,16.2559,42.3852, , ,195.2635,118.9498
473,16.2819,-28.0785, , ,195.2635,118.6233
474,16.3079,19.7858, , ,195.2635,118.7949
475,16.3339,-32.1894, , ,195.2635,118.5460
476,16.3599,-66.9189, , ,195.2635,118.3694
477,16.3859,8.4762, , ,195.2635,118.6574
478,16.4119,-31.2976, , ,195.2635,118.4597
479,16.4379,-8.9004, , ,195.2635,118.6348
480,16.4639,120.9901, , ,195.2635,119.2611
481,16.4899,27.4456, , ,195.2635,118.9486
482,16.5159,17.6934, , ,195.2635,118.9880
483,16.5419,53.2358, , ,195.2635,119.2174
484,16.5679,109.1218, , ,195.2635,119.5315
485,16.5939,-56.2462, , ,195.2635,118.9182
486,16.6199,44.3307, , ,195.2635,119.4203
487,16.6459,-72.0164, , ,195.2635,119.0125
488,16.6719,-1.3730, , ,195.2635,119.2726
489,16.6979,151.0807, , ,195.2635,119.8739
490,16.7239,22.8800, , ,195.2635,119.3016
491,16.7499,-73.4118, , ,195.2635,118.8609
492,16.7759,-76.5645, , ,195.2635,118.8112
493,16.8019,-43.1859, , ,195.2635,118.9152
494,16.8279,-22.9642, , ,195.2635,118.9637
495,16.8539,120.4220, , ,195.2635,119.5286
496,16.8799,50.8622, , ,195.2635,119.2009
497,16.9059,-116.8084, , ,195.2635,118.4908
498,16.9319,-124.1226, , ,195.2635,118.4553
499,16.9579,-2.2293, , ,195.2635,118.9640
500,16.9839,47.3221, , ,195.2635,119.1674
501,17.0099,40.1955, , ,195.2635,119.1329
502,17.0359,-168.2343, , ,195.2635,118.2502
503,17.0619,-0.1176, , ,195.2635,118.9542
504,17.0879,152.2967, , ,195.2635,119.5885
505,17.1139,131.0705, , ,195.2635,119.4951
506,17.1399,204.8105, , ,195.2635,119.7986
507,17.1659,303.1158, , ,195.2635,120.2036
508,17.1919,-1.5813, , ,195.2635,118.9247
509,17.2179,-122.0278, , ,195.2635,118.4125
510,17.2439,80.8345, , ,195.2635,119.2614
511,17.2699,208.9023, , ,195.2635,119.7925
512,17.2959,94.2150, , ,195.2635,119.3082
513,17.3219,10.4758, , ,195.2635,118.9520
514,17.3479,-28.6134, , ,195.2635,118.7829
515,17.3739,-23.5839, , ,195.2635,118.8322
516,17.3999,-94.1469, , ,195.2635,118.5630
517,17.4259,20.7836, , ,195.2635,119.0747
518,17.4519,-137.5779, , ,195.2635,118.4360
519,17.4779,-133.9270, , ,195.2635,118.4796
520,17.5039,42.3715, , ,195.2635,119.2492
521,17.5299,-73.9963, , ,195.2635,118.7883
522,17.5559,-14.0900, , ,195.2635,119.0682
523,17.5819,38.2796, , ,195.2635,119.3159
524,17.6079,-4.2021, , ,195.2635,119.0780
525,17.6339,-6.7236, , ,195.2635,119.0077
526,17.6599,60.6930, , ,195.2635,119.2310
527,17.6859,71.0018, , ,195.2635,119.2146
528,17.7119,-56.4559, , ,195.2635,118.6189
529,17.7379,59.3586, , ,195.2635,119.0463
530,17.7639,156.3944, , ,195.2635,119.3936
531,17.7899,31.9221, , ,195.2635,118.8114
532,17.8159,-99.7052, , ,195.2635,118.1960
533,17.8419,0.8188, , ,195.2635,118.6523
534,17.8679,-12.1073, , ,195.2635,118.6297
535,17.8939,-30.0595, , ,195.2635,118.5859
536,17.9199,7.5920, , ,195.2635,118.7763
537,17.9459,-18.6921, , ,195.2635,118.6975
538,17.9719,22.5265, , ,195.2635,118.9027
539,17.9979,9.2356, , ,195.2635,118.8786
540,18.0239,-8.0008, , ,195.2635,118.8379
541,18.0499,-3.4555, , ,195.2635,118.8888
542,18.0759,-68.8851, , ,195.2635,118.6798
543,18.1019,112.3382, , ,195.2635,119.5069
544,18.1279,247.5076, , ,195.2635,120.1368
545,18.1539,54.9914, , ,195.2635,119.3989
546,18.1799,22.1189, , ,195.2635,119.3273
547,18.2059,152.6091, , ,195.2635,119.9386
548,18.2319,206.8529, , ,195.2635,120.2302
549,18.2579,244.5101, , ,195.2635,120.4522
550,18.2839,373.3781, , ,195.2635,121.0511
551,18.3099,467.2774, , ,195.2635,121.5033
552,18.3359,529.8902, , ,195.2635,121.8255
553,18.3619,533.6122, , ,195.2635,121.9055
554,18.3879,450.4896, , ,195.2635,121.6289
555,18.4139,241.1249, , ,195.2635,120.8305
556,18.4399,36.2143, , ,195.2635,120.0453
557,18.4659,-10.1035, , ,195.2635,119.9181
558,18.4919,-6.8077, , ,195.2635,119.9976
559,18.5179,37.5847, , ,195.2635,120.2480
560,18.5439,40.3014, , ,195.2635,120.3304
561,18.5699,-41.2120, , ,195.2635,120.0625
562,18.5959,-40.5805, , ,195.2635,120.1364
563,18.6219,15.3368, , ,195.2635,120.4399
564,18.6479,-87.3310, , ,195.2635,120.0842
565,18.6739,-147.1557, , ,195.2635,119.9063
566,18.6999,-15.0524, , ,195.2635,120.5269
567,18.7259,-56.4997, , ,195.2635,120.4259
568,18.7519,-74.3490, , ,195.2635,120.4228
569,18.7779,178.8464, , ,195.2635,121.4316
570,18.8039,299.4019, , ,195.2635,121.8891
571,18.8299,459.7313, , ,195.2635,122.5074
572,18.8559,878.9025, , ,195.2635,124.1693
573,18.8819,1264.8670, , ,195.2635,125.6772
574,18.9079,1538.1820, , ,195.2635,126.7235
575,18.9339,1443.4940, , ,195.2635,126.3129
576,18.9599,1097.4720, , ,195.2635,124.8987
577,18.9859,690.4987, , ,195.2635,123.2213
578,19.0119,544.7689, , ,195.2635,122.5910
579,19.0379,260.7582, , ,195.2635,121.3891
580,19.0639,90.6155, , ,195.2635,120.6480
581,19.0899,105.7309, , ,195.2635,120.6725
582,19.1159,220.7495, , ,195.2635,121.1100
583,19.1419,47.3151, , ,195.2635,120.3536
584,19.1679,10.1548, , ,195.2635,120.1607
585,19.1939,139.8428, , ,195.2635,120.6610
586,19.2199,-120.8737, , ,195.2635,119.5371
587,19.2459,4.4917, , ,195.2635,120.1450
588,19.2719,28.5967, , ,195.2635,120.3298
589,19.2979,50.2238, , ,195.2635,120.5040
590,19.3239,162.7176, , ,195.2635,121.0539
591,19.3499,65.1365, , ,195.2635,120.7344
592,19.3759,67.8380, , ,195.2635,120.8298
593,19.4019,36.7793, , ,195.2635,120.7854
594,19.4279,77.5220, , ,195.2635,121.0380
595,19.4539,113.5697, , ,195.2635,121.2706
596,19.4799,112.9775, , ,195.2635,121.3520
597,19.5059,35.1181, , ,195.2635,121.1148
598,19.5319,38.6360, , ,195.2635,121.2132
599,19.5579,-54.6320, , ,195.2635,120.9120
600,19.5839,-139.9627, , ,195.2635,120.6429
601,19.6099,-103.0052, , ,195.2635,120.8801
602,19.6359,59.2029, , ,195.2635,121.6328
603,19.6619,45.7483, , ,195.2635,121.6611
604,19.6879,85.8154, , ,195.2635,121.9090
605,19.7139,-195.6493, , ,195.2635,120.8246
606,19.7399,-2.7846, , ,195.2635,121.6949
607,19.7659,119.0137, , ,195.2635,122.2689
608,19.7919,24.6423, , ,195.2635,121.9571
609,19.8179,-58.0784, , ,195.2635,121.6924
610,19.8439,104.6203, , ,195.2635,122.4335
611,19.8699,-143.9990, , ,195.2635,121.4889
612,19.8959,-20.5866, , ,195.2635,122.0704
613,19.9219,185.0496, , ,195.2635,122.9839
614,19.9479,306.6526, , ,195.2635,123.5511
615,19.9739,498.7883, , ,195.2635,124.3995
616,19.9999,340.9438, , ,195.2635,123.8370
617,20.0259,299.2938, , ,195.2635,123.7424
618,20.0519,335.9089, , ,195.2635,123.9638
619,20.0779,171.0696, , ,195.2635,123.3710
620,20.1039,62.6219, , ,195.2635,123.0048
621,20.1299,-3.7887, , ,195.2635,122.8087
622,20.1559,-55.3154, , ,195.2635,122.6731
623,20.1819,37.8924, , ,195.2635,123.1363
624,20.2079,83.1258, , ,195.2635,123.4036
625,20.2339,78.6899, , ,195.2635,123.4694
626,20.2599,55.9449, , ,195.2635,123.4610
627,20.2859,40.0222, , ,195.2635,123.4802
628,20.3119,-27.0126, , ,195.2635,123.2923
629,20.3379,51.2775, , ,195.2635,123.6929
630,20.3639,-35.3729, , ,195.2635,123.4259
631,20.3899,-35.0077, , ,195.2635,123.5111
632,20.4159,102.7256, , ,195.2635,124.0437
633,20.4419,256.5862, , ,195.2635,124.6387
634,20.4679,531.4799, , ,195.2635,125.7132
635,20.4939,978.1454, , ,195.2635,127.4543
636,20.5199,1218.3960, , ,195.2635,128.3704
637,20.5459,1280.0340, , ,195.2635,128.5873
638,20.5719,999.4944, , ,195.2635,127.4687
639,20.5979,493.0024, , ,195.2635,125.4428
640,20.6239,135.7681, , ,195.2635,123.9870
641,20.6499,10.4639, , ,195.2635,123.4568
642,20.6759,34.3925, , ,195.2635,123.5298
643,20.7019,-100.2398, , ,195.2635,122.9597
644,20.7279,-125.3292, , ,195.2635,122.8337
645,20.7539,-52.9897, , ,195.2635,123.1039
646,20.7799,-69.7854, , ,195.2635,123.0117
647,20.8059,-22.6036, , ,195.2635,123.1794
648,20.8319,-21.9532, , ,195.2635,123.1582
649,20.8579,7.3630, , ,195.2635,123.2532
650,20.8839,124.6911, , ,195.2635,123.7045
651,20.9099,148.5648, , ,195.2635,123.7772
652,20.9359,346.9963, , ,195.2635,124.5525
653,20.9619,816.9792, , ,195.2635,126.4018
654,20.9879,1479.2380, , ,195.2635,128.9721
655,21.0139,2194.0830, , ,195.2635,131.6919
656,21.0399,2655.4250, , ,195.2635,133.4099
657,21.0659,2502.5460, , ,195.2635,132.8135
658,21.0919,1915.7930, , ,195.2635,130.5634
659,21.1179,1246.8580, , ,195.2635,127.9530
660,21.1439,671.1841, , ,195.2635,125.6599
661,21.1699,368.0795, , ,195.2635,124.4243
662,21.1959,239.7750, , ,195.2635,123.8839
663,21.2219,250.6130, , ,195.2635,123.9039
664,21.2479,103.4544, , ,195.2635,123.2847
665,21.2739,-92.3857, , ,195.2635,122.4638
666,21.2999,20.6357, , ,195.2635,122.9005
667,21.3259,105.6238, , ,195.2635,123.2218
668,21.3519,-14.2276, , ,195.2635,122.6653
669,21.3779,-38.2686, , ,195.2635,122.4979
670,21.4039,8.7498, , ,195.2635,122.6203
671,21.4299,-47.7631, , ,195.2635,122.3202
672,21.4559,288.1516, , ,195.2635,123.6170
673,21.4819,537.9821, , ,195.2635,124.5551
674,21.5079,644.1304, , ,195.2635,124.9125
675,21.5339,772.3300, , ,195.2635,125.3568
676,21.5599,830.5436, , ,195.2635,125.5211
677,21.5859,780.3208, , ,195.2635,125.2530
678,21.6119,451.2993, , ,195.2635,123.8640
679,21.6379,237.2461, , ,195.2635,122.9278
680,21.6639,103.0870, , ,195.2635,122.3114
681,21.6899,81.6072, , ,195.2635,122.1540
682,21.7159,74.9936, , ,195.2635,122.0573
683,21.7419,160.4703, , ,195.2635,122.3375
684,21.7679,35.3901, , ,195.2635,121.7555
685,21.7939,-28.9099, , ,195.2635,121.4211
686,21.8199,-105.8430, , ,195.2635,121.1443
687,21.8459,5.2508, , ,195.2635,121.6421
688,21.8719,47.1476, , ,195.2635,121.8543
689,21.8979,-80.2074, , ,195.2635,121.3709
690,21.9239,-69.3919, , ,195.2635,121.4557
691,21.9499,-65.3704, , ,195.2635,121.5125
692,21.9759,-25.7680, , ,195.2635,121.7156
693,22.0019,-33.7074, , ,195.2635,121.7231
694,22.0279,96.8793, , ,195.2635,122.2983
695,22.0539,-62.2380, , ,195.2635,121.6680
696,22.0799,-54.8890, , ,195.2635,121.7201
697,22.1059,-48.7049, , ,195.2635,121.7674
698,22.1319,-156.1997, , ,195.2635,121.3472
699,22.1579,-67.5032, , ,195.2635,121.7340
700,22.1839,-71.4035, , ,195.2635,121.7399
701,22.2099,-52.2121, , ,195.2635,121.8406
702,22.2359,-58.2513, , ,195.2635,121.8377
703,22.2619,85.1793, , ,195.2635,122.4466
704,22.2879,-47.3095, , ,195.2635,121.9017
705,22.3139,81.7943, , ,195.2635,122.4274
706,22.3399,-9.4902, , ,195.2635,122.0513
707,22.3659,85.8906, , ,195.2635,122.4387
708,22.3919,78.8413, , ,195.2635,122.4071
709,22.4179,361.8046, , ,195.2635,123.5549
710,22.4439,399.3071, , ,195.2635,123.7038
711,22.4699,691.0953, , ,195.2635,124.8750
712,22.4959,953.6611, , ,195.2635,125.9193
713,22.5219,1221.8710, , ,195.2635,126.9772
714,22.5479,942.6669, , ,195.2635,125.8703
715,22.5739,727.7180, , ,195.2635,125.0109
716,22.5999,541.0452, , ,195.2635,124.2593
717,22.6259,211.4728, , ,195.2635,122.9233
718,22.6519,174.2832, , ,195.2635,122.7692
719,22.6779,112.2076, , ,195.2635,122.5134
720,22.7039,50.9031, , ,195.2635,122.2603
721,22.7299,37.9180, , ,195.2635,122.2044
722,22.7559,-56.0180, , ,195.2635,121.7848
723,22.7819,-71.1750, , ,195.2635,121.6879
724,22.8079,-126.7672, , ,195.2635,121.4245
725,22.8339,-113.8353, , ,195.2635,121.4429
726,22.8599,-4.8462, , ,195.2635,121.8562
727,22.8859,36.3844, , ,195.2635,121.9906
728,22.9119,71.3490, , ,195.2635,122.0993
729,22.9379,141.8497, , ,195.2635,122.3532
730,22.9639,135.4552, , ,195.2635,122.2925
731,22.9899,206.9487, , ,195.2635,122.5500
732,23.0159,123.4777, , ,195.2635,122.1744
733,23.0419,116.9854, , ,195.2635,122.1133
734,23.0679,133.8507, , ,195.2635,122.1478
735,23.0939,233.8176, , ,195.2635,122.5218
736,23.1199,-30.8076, , ,195.2635,121.4023
737,23.1459,-69.5610, , ,195.2635,121.2078
738,23.1719,39.1806, , ,195.2635,121.6208
739,23.1979,-16.7091, , ,195.2635,121.3561
740,23.2239,18.8488, , ,195.2635,121.3977
741,23.2499,137.4802, , ,195.2635,121.7809
742,23.2759,111.8054, , ,195.2635,121.5709
743,23.3019,103.9851, , ,195.2635,121.4340
744,23.3279,246.0548, , ,195.2635,121.9132
745,23.3539,558.8427, , ,195.2635,123.0861
746,23.3799,864.8785, , ,195.2635,124.2206
747,23.4059,1244.5060, , ,195.2635,125.6382
748,23.4319,1611.2650, , ,195.2635,126.9892
749,23.4579,1696.3040, , ,195.2635,127.2237
750,23.4839,1413.2080, , ,195.2635,126.0052
751,23.5099,1049.0780, , ,195.2635,124.4498
752,23.5359,680.8126, , ,195.2635,122.8578
753,23.5619,391.1689, , ,195.2635,121.5687
754,23.5879,247.8204, , ,195.2635,120.8725
755,23.6139,111.8875, , ,195.2635,120.2031
756,23.6399,74.3950, , ,195.2635,119.9410
757,23.6659,25.7636, , ,195.2635,119.6318
758,23.6919,-64.4484, , ,195.2635,119.1922
759,23.7179,-25.7764, , ,195.2635,119.2924
760,23.7439,122.9842, , ,195.2635,119.8526
761,23.7699,201.9981, , ,195.2635,120.1203
762,23.7959,98.2610, , ,195.2635,119.6260
763,23.8219,7.7879, , ,195.2635,119.1852
764,23.8479,51.1744, , ,195.2635,119.3052
765,23.8739,99.0938, , ,195.2635,119.4440
766,23.8999,103.6581, , ,195.2635,119.4012
767,23.9259,168.4585, , ,195.2635,119.6105
768,23.9519,127.7833, , ,195.2635,119.3785
769,23.9779,166.8775, , ,195.2635,119.4803
770,24.0039,171.8053, , ,195.2635,119.4391
771,24.0299,0.0276, , ,195.2635,118.6555
772,24.0559,-133.4811, , ,195.2635,118.0290
773,24.0819,-21.3676, , ,195.2635,118.4407
774,24.1079,-11.3387, , ,195.2635,118.4206
775,24.1339,17.1814, , ,195.2635,118.4786
776,24.1599,42.1242, , ,195.2635,118.5609
777,24.1859,-12.0191, , ,195.2635,118.3093
778,24.2119,25.1248, , ,195.2635,118.4432
779,24.2379,118.5790, , ,195.2635,118.8141
780,24.2639,71.2456, , ,195.2635,118.5918
781,24.2899,113.0449, , ,195.2635,118.7450
782,24.3159,85.5883, , ,195.2635,118.6064
783,24.3419,112.4090, , ,195.2635,118.6965
784,24.3679,188.1414, , ,195.2635,118.9922
785,24.3939,-20.4137, , ,195.2635,118.0896
786,24.4199,-0.0967, , ,195.2635,118.1525
787,24.4459,79.0933, , ,195.2635,118.4642
788,24.4719,245.3959, , ,195.2635,119.1412
789,24.4979,0.3016, , ,195.2635,118.0851
790,24.5239,-52.9828, , ,195.2635,117.8361
791,24.5499,22.0032, , ,195.2635,118.1308
792,24.5759,99.2744, , ,195.2635,118.4344
793,24.6019,-28.6901, , ,195.2635,117.8699
794,24.6279,-81.9010, , ,195.2635,117.6633
795,24.6539,105.6842, , ,195.2635,118.4770
796,24.6799,219.7709, , ,195.2635,118.9766
797,24.7059,218.1023, , ,195.2635,118.9888
798,24.7319,290.6569, , ,195.2635,119.3123
799,24.7579,595.1200, , ,195.2635,120.6004
800,24.7839,391.9557, , ,195.2635,119.7741
801,24.8099,561.3759, , ,195.2635,120.4982
802,24.8359,259.0213, , ,195.2635,119.2561
803,24.8619,137.8923, , ,195.2635,118.7664
804,24.8879,122.3925, , ,195.2635,118.7203
805,24.9139,-12.4010, , ,195.2635,118.1705
806,24.9399,194.1181, , ,195.2635,119.0602
807,24.9659,-69.4513, , ,195.2635,117.9675
808,24.9919,-113.3123, , ,195.2635,117.8008
809,25.0179,-9.2571, , ,195.2635,118.2609
810,25.0439,-16.4821, , ,195.2635,118.2496
811,25.0699,74.4542, , ,195.2635,118.6527
812,25.0959,2.5274, , ,195.2635,118.2867
813,25.1219,3.9417, , ,195.2635,118.2302
814,25.1479,-60.6384, , ,195.2635,117.8941
815,25.1739,153.9569, , ,195.2635,118.7386
816,25.1999,263.0242, , ,195.2635,119.1349
817,25.2259,491.5967, , ,195.2635,120.0289
818,25.2519,338.0756, , ,195.2635,119.3257
819,25.2779,226.0907, , ,195.2635,118.7934
820,25.3039,22.2393, , ,195.2635,117.8696
821,25.3299,166.7700, , ,195.2635,118.4187
822,25.3559,111.5346, , ,195.2635,118.1227
823,25.3819,-30.4593, , ,195.2635,117.4573
824,25.4079,38.8366, , ,195.2635,117.6891
825,25.4339,-15.6140, , ,195.2635,117.3946
826,25.4599,-90.2479, , ,195.2635,117.0132
827,25.4859,57.4844, , ,195.2635,117.5799
828,25.5119,-10.1295, , ,195.2635,117.2290
829,25.5379,23.2386, , ,195.2635,117.3083
830,25.5639,-91.1570, , ,195.2635,116.8140
831,25.5899,93.0814, , ,195.2635,117.5943
832,25.6159,206.5698, , ,195.2635,118.0702
833,25.6419,139.8057, , ,195.2635,117.7815
834,25.6679,88.1370, , ,195.2635,117.5562
835,25.6939,59.0299, , ,195.2635,117.4267
836,25.7199,0.9578, , ,195.2635,117.1735
837,25.7459,6.0571, , ,195.2635,117.1895
838,25.7719,11.4887, , ,195.2635,117.2070
839,25.7979,16.3814, , ,195.2635,117.2838
840,25.8239,-73.5350, , ,195.2635,116.9559
841,25.8499,75.9593, , ,195.2635,117.6490
842,25.8759,67.5948, , ,195.2635,117.6692
843,25.9019,-41.7809, , ,195.2635,117.2594
844,25.9279,-61.9386, , ,195.2635,117.2294
845,25.9539,-0.1568, , ,195.2635,117.5484
846,25.9799,23.4485, , ,195.2635,117.7044
847,26.0059,-17.2387, , ,195.2635,117.5872
848,26.0319,51.7618, , ,195.2635,117.8303
849,26.0579,-47.2091, , ,195.2635,117.3594
850,26.0839,-88.0507, , ,195.2635,117.1350
851,26.1099,-45.2820, , ,195.2635,117.2672
852,26.1359,22.6768, , ,195.2635,117.5065
853,26.1619,87.5681, , ,195.2635,117.7323
854,26.1879,67.3851, , ,195.2635,117.5965
855,26.2139,8.1035, , ,195.2635,117.2940
856,26.2399,-44.6423, , ,195.2635,117.0186
857,26.2659,-16.9407, , ,195.2635,117.1379
858,26.2919,39.2632, , ,195.2635,117.3785
859,26.3179,95.9046, , ,195.2635,117.6205
860,26.3439,87.0150, , ,195.2635,117.5836
861,26.3699,108.7875, , ,195.2635,117.6771
862,26.3959,146.7030, , ,195.2635,117.8390
863,26.4219,129.1446, , ,195.2635,117.7654
864,26.4479,257.6027, , ,195.2635,118.3105
865,26.4739,188.8203, , ,195.2635,118.0204
866,26.4999,32.3238, , ,195.2635,117.3565
867,26.5259,199.0628, , ,195.2635,118.0657
868,26.5519,318.0168, , ,195.2635,118.5693
869,26.5779,157.4337, , ,195.2635,117.8911
870,26.6039,35.2564, , ,195.2635,117.3728
871,26.6299,53.9444, , ,195.2635,117.4533
872,26.6559,23.6949, , ,195.2635,117.3254
873,26.6819,14.0306, , ,195.2635,117.2852
874,26.7079,-23.3701, , ,195.2635,117.1266
875,26.7339,-7.3761, , ,195.2635,117.2128
876,26.7599,168.1387, , ,195.2635,117.9770
877,26.7859,248.1696, , ,195.2635,118.3336
878,26.8119,403.3529, , ,195.2635,119.0052
879,26.8379,539.8848, , ,195.2635,119.5951
880,26.8639,659.4233, , ,195.2635,120.1114
881,26.8899,674.9260, , ,195.2635,120.1935
882,26.9159,567.2759, , ,195.2635,119.7625
883,26.9419,452.2679, , ,195.2635,119.2991
884,26.9679,221.9618, , ,195.2635,118.3477
885,26.9939,212.7206, , ,195.2635,118.3265
886,27.0199,50.7117, , ,195.2635,117.6579
887,27.0459,-58.0794, , ,195.2635,117.2127
888,27.0719,-89.2869, , ,195.2635,117.0975
889,27.0979,-115.4263, , ,195.2635,117.0039
890,27.1239,-143.9557, , ,195.2635,116.9000
891,27.1499,-99.5820, , ,195.2635,117.1076
892,27.1759,-35.4437, , ,195.2635,117.3991
893,27.2019,168.0682, , ,195.2635,118.1866
894,27.2279,254.9665, , ,195.2635,118.4777
895,27.2539,495.3338, , ,195.2635,119.4125
896,27.2799,525.8679, , ,195.2635,119.4649
897,27.3059,781.8924, , ,195.2635,120.4570
898,27.3319,398.4987, , ,195.2635,118.7792
899,27.3579,229.5091, , ,195.2635,117.9894
900,27.3839,45.7300, , ,195.2635,117.1313
901,27.4099,41.7503, , ,195.2635,117.0374
902,27.4359,-74.7229, , ,195.2635,116.4453
903,27.4619,-119.9222, , ,195.2635,116.1573
904,27.4879,-86.1289, , ,195.2635,116.2090
905,27.5139,-95.0940, , ,195.2635,116.0767
906,27.5399,-73.2667, , ,195.2635,116.0769
907,27.5659,-3.5462, , ,195.2635,116.2832
908,27.5919,-80.5914, , ,195.2635,115.8575
909,27.6179,198.6086, , ,195.2635,116.9632
910,27.6439,172.3215, , ,195.2635,116.7575
911,27.6699,72.2801, , ,195.2635,116.2347
912,27.6959,3.9255, , ,195.2635,115.8463
913,27.7219,36.4370, , ,195.2635,115.8926
914,27.7479,-24.7896, , ,195.2635,115.5340
915,27.7739,8.4919, , ,195.2635,115.5837
916,27.7999,-114.9432, , ,195.2635,114.9539
917,27.8259,-206.8505, , ,195.2635,114.4583
918,27.8519,52.0222, , ,195.2635,115.4894
919,27.8779,9.0425, , ,195.2635,115.2087
920,27.9039,-8.9175, , ,195.2635,115.0656
921,27.9299,219.2704, , ,195.2635,115.9882
922,27.9559,230.2566, , ,195.2635,115.9709
923,27.9819,200.6869, , ,195.2635,115.7786
924,28.0079,597.3142, , ,195.2635,117.4151
925,28.0339,902.8069, , ,195.2635,118.6457
926,28.0599,901.3094, , ,195.2635,118.5762
927,28.0859,897.8655, , ,195.2635,118.4984
928,28.1119,729.9030, , ,195.2635,117.7238
929,28.1379,537.2078, , ,195.2635,116.8384
930,28.1639,273.8671, , ,195.2635,115.6411
931,28.1899,163.2194, , ,195.2635,115.0966
932,28.2159,117.1940, , ,195.2635,114.8312
933,28.2419,87.4657, , ,195.2635,114.6362
934,28.2679,-78.2863, , ,195.2635,113.8451
935,28.2939,-69.3480, , ,195.2635,113.8185
936,28.3199,43.3753, , ,195.2635,114.2470
937,28.3459,-37.4074, , ,195.2635,113.8270
938,28.3719,36.0496, , ,195.2635,114.1025
939,28.3979,107.3438, , ,195.2635,114.3679
940,28.4239,143.9524, , ,195.2635,114.4812
941,28.4499,326.8068, , ,195.2635,115.2308
942,28.4759,174.9998, , ,195.2635,114.5237
943,28.5019,134.1631, , ,195.2635,114.2986
944,28.5279,111.8375, , ,195.2635,114.1542
945,28.5539,80.9802, , ,195.2635,113.9721
946,28.5799,39.6654, , ,195.2635,113.7439
947,28.6059,-96.3302, , ,195.2635,112.9980
948,28.6319,-104.1228, , ,195.2635,112.8169
949,28.6579,-130.6556, , ,195.2635,112.5523
950,28.6839,-108.7715, , ,195.2635,112.5024
951,28.7099,-113.7528, , ,195.2635,112.3329
952,28.7359,-123.3226, , ,195.2635,112.1428
953,28.7619,-91.6204, , ,195.2635,112.1365
954,28.7879,-10.7693, , ,195.2635,112.3492
955,28.8139,50.9653, , ,195.2635,112.4765
956,28.8399,-12.9375, , ,195.2635,112.1584
957,28.8659,-49.5137, , ,195.2635,111.9615
958,28.8919,-39.1789, , ,195.2635,111.9739
959,28.9179,-59.6451, , ,195.2635,111.8487
960,28.9439,-37.7249, , ,195.2635,111.9129
961,28.9699,-58.8622, , ,195.2635,111.7846
962,28.9959,-4.6309, , ,195.2635,111.9932
963,29.0219,70.8763, , ,195.2635,112.2962
964,29.0479,-8.5137, , ,195.2635,111.9084
965,29.0739,-25.5709, , ,195.2635,111.8788
966,29.0999,-41.2498, , ,195.2635,111.8554
967,29.1259,17.9603, , ,195.2635,112.1664
968,29.1519,132.3028, , ,195.2635,112.7213
969,29.1779,207.6457, , ,195.2635,113.1011
970,29.2039,195.3538, , ,195.2635,113.0930
971,29.2299,69.2677, , ,195.2635,112.5805
972,29.2559,9.1668, , ,195.2635,112.3598
973,29.2819,-41.5578, , ,195.2635,112.1804
974,29.3079,8.6852, , ,195.2635,112.3952
975,29.3339,4.8973, , ,195.2635,112.3695
976,29.3599,-32.6974, , ,195.2635,112.1931
977,29.3859,-77.3868, , ,195.2635,111.9849
978,29.4119,-152.6316, , ,195.2635,111.6395
979,29.4379,-63.9951, , ,195.2635,112.0268
980,29.4639,10.9943, , ,195.2635,112.3521
981,29.4899,277.7031, , ,195.2635,113.5240
982,29.5159,577.6489, , ,195.2635,114.8288
983,29.5419,755.8933, , ,195.2635,115.5129
984,29.5679,926.2402, , ,195.2635,116.1590
985,29.5939,885.0169, , ,195.2635,115.8923
986,29.6199,836.8512, , ,195.2635,115.5949
987,29.6459,576.0351, , ,195.2635,114.3709
988,29.6719,465.2741, , ,195.2635,113.7949
989,29.6979,231.9493, , ,195.2635,112.6733
990,29.7239,179.9028, , ,195.2635,112.3502
991,29.7499,82.8895, , ,195.2635,111.8253
992,29.7759,-4.9600, , ,195.2635,111.3390
993,29.8019,12.5591, , ,195.2635,111.3249
994,29.8279,95.9390, , ,195.2635,111.6062
995,29.8539,-72.5424, , ,195.2635,110.7555
996,29.8799,-146.5024, , ,195.2635,110.3275
997,29.9059,-50.6157, , ,195.2635,110.6679
998,29.9319,-165.0476, , ,195.2635,110.0558
999,29.9579,203.0259, , ,195.2635,111.6230
1000,29.9839,7.3168, , ,195.2635,110.6495
1001,30.0099,-119.8695, , ,195.2635,109.9127
1002,30.0359,-9.7006, , ,195.2635,110.2526
1003,30.0619,-161.4880, , ,195.2635,109.4007
1004,30.0879,18.0830, , ,195.2635,110.0579
1005,30.1139,-130.1124, , ,195.2635,109.2210
1006,30.1399,26.8466, , ,195.2635,109.7763
1007,30.1659,35.0005, , ,195.2635,109.6525
1008,30.1919,-93.3186, , ,195.2635,108.9037
1009,30.2179,-39.0190, , ,195.2635,108.9907
1010,30.2439,15.1769, , ,195.2635,109.1597
1011,30.2699,178.9816, , ,195.2635,109.8286
1012,30.2959,6.5787, , ,195.2635,108.9614
1013,30.3219,-30.5526, , ,195.2635,108.7111
1014,30.3479,168.0126, , ,195.2635,109.5415
1015,30.3739,-31.6928, , ,195.2635,108.5463
1016,30.3999,90.8924, , ,195.2635,109.0301
1017,30.4259,90.0783, , ,195.2635,108.9468
1018,30.4519,-155.6697, , ,195.2635,107.7327
1019,30.4779,26.1914, , ,195.2635,108.4956
1020,30.5039,131.6247, , ,195.2635,108.9029
1021,30.5299,5.1724, , ,195.2635,108.2428
1022,30.5559,130.7455, , ,195.2635,108.7437
1023,30.5819,90.6546, , ,195.2635,108.4814
1024,30.6079,403.7136, , ,195.2635,109.8380
1025,30.6339,254.9081, , ,195.2635,109.0811
1026,30.6599,410.9281, , ,195.2635,109.7170
1027,30.6859,351.4801, , ,195.2635,109.3686
1028,30.7119,128.3661, , ,195.2635,108.2658
1029,30.7379,242.3115, , ,195.2635,108.7131
1030,30.7639,159.8194, , ,195.2635,108.2550
1031,30.7899,158.7823, , ,195.2635,108.1722
1032,30.8159,143.8004, , ,195.2635,108.0248
1033,30.8419,114.8226, , ,195.2635,107.8123
1034,30.8679,36.1270, , ,195.2635,107.3681
1035,30.8939,-13.2377, , ,195.2635,107.0591
1036,30.9199,20.5620, , ,195.2635,107.1381
1037,30.9459,-33.4068, , ,195.2635,106.8765
1038,30.9719,37.6809, , ,195.2635,107.1993
1039,30.9979,28.2936, , ,195.2635,107.1461
1040,31.0239,46.0329, , ,195.2635,107.2196
1041,31.0499,60.6372, , ,195.2635,107.2783
1042,31.0759,130.0614, , ,195.2635,107.5921
1043,31.1019,58.3086, , ,195.2635,107.2488
1044,31.1279,42.4516, , ,195.2635,107.1655
1045,31.1539,24.2925, , ,195.2635,107.0714
1046,31.1799,-61.5963, , ,195.2635,106.5383
1047,31.2059,-43.2573, , ,195.2635,106.4929
1048,31.2319,-13.0208, , ,195.2635,106.5034
1049,31.2579,-10.9667, , ,195.2635,106.3815
1050,31.2839,-3.6918, , ,195.2635,106.2841
1051,31.3099,26.8156, , ,195.2635,106.2959
1052,31.3359,119.6435, , ,195.2635,106.6004
1053,31.3619,119.8319, , ,195.2635,106.4699
1054,31.3879,64.5203, , ,195.2635,106.0779
1055,31.4139,70.2525, , ,195.2635,105.9729
1056,31.4399,92.5725, , ,195.2635,105.9461
1057,31.4659,103.3861, , ,195.2635,105.8649
1058,31.4919,115.0648, , ,195.2635,105.7878
1059,31.5179,-21.1302, , ,195.2635,105.0089
1060,31.5439,-4.3445, , ,195.2635,104.9555
1061,31.5699,91.7865, , ,195.2635,105.2796
1062,31.5959,28.3468, , ,195.2635,104.8444
1063,31.6219,9.1019, , ,195.2635,104.6188
1064,31.6479,-61.4629, , ,195.2635,104.1680
1065,31.6739,-51.4836, , ,195.2635,104.1029
1066,31.6999,15.0449, , ,195.2635,104.3091
1067,31.7259,-33.3956, , ,195.2635,103.9634
1068,31.7519,-45.6968, , ,195.2635,103.7908
1069,31.7779,-11.4610, , ,195.2635,103.8422
1070,31.8039,-78.0207, , ,195.2635,103.4074
1071,31.8299,-21.8617, , ,195.2635,103.5649
1072,31.8559,44.4317, , ,195.2635,103.7711
1073,31.8819,-14.4916, , ,195.2635,103.5522
1074,31.9079,-20.8105, , ,195.2635,103.5872
1075,31.9339,-38.6589, , ,195.2635,103.5664
1076,31.9599,-49.3949, , ,195.2635,103.5801
1077,31.9859,-8.1128, , ,195.2635,103.8444
1078,32.0119,-19.2141, , ,195.2635,103.8562
1079,32.0379,-30.1428, , ,195.2635,103.8689
1080,32.0639,58.0011, , ,195.2635,104.3573
1081,32.0899,31.4588, , ,195.2635,104.2951
1082,32.1159,-3.7911, , ,195.2635,104.0277
1083,32.1419,-96.8415, , ,195.2635,103.4808
1084,32.1679,28.8865, , ,195.2635,103.9882
1085,32.1939,114.9791, , ,195.2635,104.3034
1086,32.2199,-6.5849, , ,195.2635,103.6204
1087,32.2459,-12.5820, , ,195.2635,103.4928
1088,32.2719,-98.0697, , ,195.2635,102.9797
1089,32.2979,52.8219, , ,195.2635,103.6111
1090,32.3239,-1.7085, , ,195.2635,103.2487
1091,32.3499,21.6178, , ,195.2635,103.2659
1092,32.3759,-5.5337, , ,195.2635,103.0384
1093,32.4019,19.6816, , ,195.2635,103.0648
1094,32.4279,105.6801, , ,195.2635,103.3855
1095,32.4539,49.3032, , ,195.2635,103.0166
1096,32.4799,-15.4657, , ,195.2635,102.6054
1097,32.5059,-15.7297, , ,195.2635,102.5077
1098,32.5319,38.3937, , ,195.2635,102.6751
1099,32.5579,-33.7467, , ,195.2635,102.2265
1100,32.5839,38.0306, , ,195.2635,102.5612
1101,32.6099,39.6689, , ,195.2635,102.5535
1102,32.6359,17.5351, , ,195.2635,102.4298
1103,32.6619,205.6418, , ,195.2635,103.3284
1104,32.6879,315.2287, , ,195.2635,103.8418
1105,32.7139,423.5953, , ,195.2635,104.3468
1106,32.7399,479.3187, , ,195.2635,104.5981
1107,32.7659,319.9807, , ,195.2635,103.8181
1108,32.7919,320.2926, , ,195.2635,103.8041
1109,32.8179,182.1751, , ,195.2635,103.0275
1110,32.8439,256.7901, , ,195.2635,103.2802
1111,32.8699,135.1521, , ,195.2635,102.5800
1112,32.8959,-73.1735, , ,195.2635,101.4486
1113,32.9219,36.1882, , ,195.2635,101.8758
1114,32.9479,130.4231, , ,195.2635,102.2273
1115,32.9739,110.2659, , ,195.2635,102.0185
1116,32.9999,31.4949, , ,195.2635,101.5209
1117,33.0259,30.3000, , ,195.2635,101.4041
1118,33.0519,129.0492, , ,195.2635,101.7794
1119,33.0779,158.2633, , ,195.2635,101.8124
1120,33.1039,269.2038, , ,195.2635,102.2458
1121,33.1299,106.3951, , ,195.2635,101.3356
1122,33.1559,78.2486, , ,195.2635,101.0854
1123,33.1819,-84.4226, , ,195.2635,100.1653
1124,33.2079,-33.4521, , ,195.2635,100.3073
1125,33.2339,-119.6798, , ,195.2635,99.7638
1126,33.2599,102.3404, , ,195.2635,100.7588
1127,33.2859,42.2437, , ,195.2635,100.4159
1128,33.3119,-38.2159, , ,195.2635,99.9700
1129,33.3379,8.1787, , ,195.2635,100.1574
1130,33.3639,-24.2369, , ,195.2635,99.9510
1131,33.3899,-30.3789, , ,195.2635,99.8758
1132,33.4159,-2.7404, , ,195.2635,99.9696
1133,33.4419,-10.2832, , ,195.2635,99.8874
1134,33.4679,-24.2949, , ,195.2635,99.7727
1135,33.4939,-23.2164, , ,195.2635,99.7336
1136,33.5199,36.2966, , ,195.2635,100.0737
1137,33.5459,-0.7562, , ,195.2635,99.9306
1138,33.5719,-38.5613, , ,195.2635,99.7836
1139,33.5979,-71.9401, , ,195.2635,99.6586
1140,33.6239,-43.4663, , ,195.2635,99.8437
1141,33.6499,-7.2624, , ,195.2635,100.0670
1142,33.6759,-1.5196, , ,195.2635,100.1379
1143,33.7019,-45.8682, , ,195.2635,99.9584
1144,33.7279,29.5229, , ,195.2635,100.3769
1145,33.7539,31.1519, , ,195.2635,100.3130
1146,33.7799,-39.8076, , ,195.2635,99.8865
1147,33.8059,-10.8563, , ,195.2635,99.9590
1148,33.8319,-16.5613, , ,195.2635,99.8582
1149,33.8579,-83.0854, , ,195.2635,99.4520
1150,33.8839,-118.2154, , ,195.2635,99.2024
1151,33.9099,-31.6031, , ,195.2635,99.5655
1152,33.9359,30.4403, , ,195.2635,99.8042
1153,33.9619,26.7715, , ,195.2635,99.7134
1154,33.9879,13.4270, , ,195.2635,99.5026
1155,34.0139,-6.7873, , ,195.2635,99.2566
1156,34.0399,170.5271, , ,195.2635,100.0026
1157,34.0659,367.6896, , ,195.2635,100.8416
1158,34.0919,305.6847, , ,195.2635,100.3910
1159,34.1179,304.6342, , ,195.2635,100.2429
1160,34.1439,295.3566, , ,195.2635,100.0534
1161,34.1699,183.6852, , ,195.2635,99.3496
1162,34.1959,82.7507, , ,195.2635,98.6952
1163,34.2219,-52.8383, , ,195.2635,97.8596
1164,34.2479,-34.6839, , ,195.2635,97.8058
1165,34.2739,20.1485, , ,195.2635,97.9395
1166,34.2999,-27.6615, , ,195.2635,97.5483
1167,34.3259,-22.7810, , ,195.2635,97.4263
1168,34.3519,-82.4213, , ,195.2635,96.9721
1169,34.3779,-146.5283, , ,195.2635,96.4925
1170,34.4039,0.7224, , ,195.2635,97.1050
1171,34.4299,58.6387, , ,195.2635,97.2555
1172,34.4559,-13.8228, , ,195.2635,96.7859
1173,34.4819,-15.0524, , ,195.2635,96.6831
1174,34.5079,16.4780, , ,195.2635,96.7496
1175,34.5339,-84.5334, , ,195.2635,96.1291
1176,34.5599,-123.5379, , ,195.2635,95.8286
1177,34.5859,-70.8492, , ,195.2635,96.0060
1178,34.6119,-92.3120, , ,195.2635,95.7968
1179,34.6379,-26.5391, , ,195.2635,96.0423
1180,34.6639,62.2238, , ,195.2635,96.4066
1181,34.6899,20.7502, , ,195.2635,96.1785
1182,34.7159,-77.4407, , ,195.2635,95.6539
1183,34.7419,-64.6569, , ,195.2635,95.7079
1184,34.7679,15.5189, , ,195.2635,96.1132
1185,34.7939,34.1116, , ,195.2635,96.1971
1186,34.8199,-8.3529, , ,195.2635,95.9634
1187,34.8459,-92.4792, , ,195.2635,95.5113
1188,34.8719,-45.4119, , ,195.2635,95.7446
1189,34.8979,-15.4455, , ,195.2635,95.8882
1190,34.9239,85.2963, , ,195.2635,96.4663
1191,34.9499,77.6704, , ,195.2635,96.4809
1192,34.9759,99.4323, , ,195.2635,96.6476
1193,35.0019,87.8239, , ,195.2635,96.6416
1194,35.0279,215.0755, , ,195.2635,97.3514
1195,35.0539,251.0824, , ,195.2635,97.5897
1196,35.0799,70.3354, , ,195.2635,96.7132
1197,35.1059,40.1972, , ,195.2635,96.6113
1198,35.1319,-92.0770, , ,195.2635,95.9788
1199,35.1579,101.4914, , ,195.2635,96.9292
1200,35.1839,-89.8404, , ,195.2635,95.8839
1201,35.2099,-109.3027, , ,195.2635,95.7289
1202,35.2359,-78.5225, , ,195.2635,95.8363
1203,35.2619,-35.4183, , ,195.2635,96.0077
1204,35.2879,29.4607, , ,195.2635,96.2919
1205,35.3139,-8.8476, , ,195.2635,96.0396
1206,35.3399,66.8939, , ,195.2635,96.3801
1207,35.3659,-59.6973, , ,195.2635,95.6677
1208,35.3919,-44.4547, , ,195.2635,95.6945
1209,35.4179,59.4856, , ,195.2635,96.1835
1210,35.4439,-53.9760, , ,195.2635,95.5389
1211,35.4699,-180.6008, , ,195.2635,94.8206
1212,35.4959,-27.1003, , ,195.2635,95.5738
1213,35.5219,-15.7375, , ,195.2635,95.5803
1214,35.5479,6.7774, , ,195.2635,95.6452
1215,35.5739,46.8319, , ,195.2635,95.8016
1216,35.5999,150.8044, , ,195.2635,96.2902
1217,35.6259,123.2762, , ,195.2635,96.0946
1218,35.6519,170.0231, , ,195.2635,96.2850
1219,35.6779,90.8954, , ,195.2635,95.8205
1220,35.7039,85.9459, , ,195.2635,95.7418
1221,35.7299,7.5939, , ,195.2635,95.2787
1222,35.7559,70.1176, , ,195.2635,95.5534
1223,35.7819,-23.7002, , ,195.2635,95.0080
1224,35.8079,-35.7535, , ,195.2635,94.8913
1225,35.8339,62.2431, , ,195.2635,95.3533
1226,35.8599,20.9383, , ,195.2635,94.9189
1227,35.8859,-22.7534, , ,195.2635,94.4700
1228,35.9119,-11.1428, , ,195.2635,94.3126
1229,35.9379,47.2108, , ,195.2635,94.4027
1230,35.9639,81.1989, , ,195.2635,94.3638
1231,35.9899,103.9704, , ,195.2635,94.2654
1232,36.0159,59.7089, , ,195.2635,93.8103
1233,36.0419,19.7025, , ,195.2635,93.3758
1234,36.0679,-7.9597, , ,195.2635,93.0056
1235,36.0939,-75.1900, , ,195.2635,92.6710
1236,36.1199,18.3014, , ,195.2635,93.2015
1237,36.1459,-67.0785, , ,195.2635,92.7699
1238,36.1719,-12.2634, , ,195.2635,93.0923
1239,36.1979,6.7811, , ,195.2635,93.2220
1240,36.2239,-29.1407, , ,195.2635,93.0566
1241,36.2499,39.3124, , ,195.2635,93.4510
1242,36.2759,3.9428, , ,195.2635,93.2890
1243,36.3019,13.3288, , ,195.2635,93.3666
1244,36.3279,14.3673, , ,195.2635,93.2400
1245,36.3539,-64.1659, , ,195.2635,92.6850
1246,36.3799,89.4830, , ,195.2635,93.3782
1247,36.4059,75.5393, , ,195.2635,93.1712
1248,36.4319,-14.0232, , ,195.2635,92.5562
1249,36.4579,-5.7776, , ,195.2635,92.4674
1250,36.4839,-27.7418, , ,195.2635,92.2149
1251,36.5099,-26.5999, , ,195.2635,92.0873
1252,36.5359,18.5806, , ,195.2635,92.1986
1253,36.5619,3.0010, , ,195.2635,92.0139
1254,36.5879,31.1293, , ,195.2635,92.0665
1255,36.6139,57.7457, , ,195.2635,92.1109
1256,36.6399,11.9528, , ,195.2635,91.7615
1257,36.6659,3.1931, , ,195.2635,91.6132
1258,36.6919,60.1889, , ,195.2635,91.8233
1259,36.7179,107.3168, , ,195.2635,91.9794
1260,36.7439,24.2900, , ,195.2635,91.4261
1261,36.7699,-47.5312, , ,195.2635,90.9311
1262,36.7959,-5.9235, , ,195.2635,91.1145
1263,36.8219,-26.9903, , ,195.2635,90.9536
1264,36.8479,-17.6485, , ,195.2635,90.9598
1265,36.8739,86.0104, , ,195.2635,91.4829
1266,36.8999,26.3653, , ,195.2635,91.1112
1267,36.9259,-10.2506, , ,195.2635,90.8648
1268,36.9519,134.0891, , ,195.2635,91.6108
1269,36.9779,122.5727, , ,195.2635,91.5030
1270,37.0039,95.2537, , ,195.2635,91.3086
1271,37.0299,199.6113, , ,195.2635,91.8335
1272,37.0559,189.4500, , ,195.2635,91.7333
1273,37.0819,33.1062, , ,195.2635,90.8319
1274,37.1079,-46.2387, , ,195.2635,90.3486
1275,37.1339,-25.7219, , ,195.2635,90.4166
1276,37.1599,-48.0216, , ,195.2635,90.2477
1277,37.1859,-17.6107, , ,195.2635,90.3705
1278,37.2119,-17.3443, , ,195.2635,90.3265
1279,37.2379,-63.9644, , ,195.2635,90.0224
1280,37.2639,24.4224, , ,195.2635,90.5384
1281,37.2899,124.8034, , ,195.2635,91.1173
1282,37.3159,44.5706, , ,195.2635,90.7023
1283,37.3419,1.3310, , ,195.2635,90.4900
1284,37.3679,-21.4294, , ,195.2635,90.3906
1285,37.3939,35.2991, , ,195.2635,90.7302
1286,37.4199,81.8147, , ,195.2635,91.0124
1287,37.4459,52.3565, , ,195.2635,90.8767
1288,37.4719,122.3430, , ,195.2635,91.2871
1289,37.4979,169.1302, , ,195.2635,91.5691
1290,37.5239,188.7871, , ,195.2635,91.7025
1291,37.5499,94.5607, , ,195.2635,91.2135
1292,37.5759,91.5941, , ,195.2635,91.2234
1293,37.6019,95.8795, , ,195.2635,91.2730
1294,37.6279,-13.5208, , ,195.2635,90.6981
1295,37.6539,12.0545, , ,195.2635,90.8653
1296,37.6799,9.0699, , ,195.2635,90.8751
1297,37.7059,-49.0437, , ,195.2635,90.5812
1298,37.7319,54.1099, , ,195.2635,91.0049
1299,37.7579,88.4092, , ,195.2635,91.0492
1300,37.7839,27.5654, , ,195.2635,90.5699
1301,37.8099,130.0901, , ,195.2635,90.9901
1302,37.8359,64.2122, , ,195.2635,90.4826
1303,37.8619,41.0028, , ,195.2635,90.2090
1304,37.8879,128.8964, , ,195.2635,90.5502
1305,37.9139,34.3775, , ,195.2635,89.8810
1306,37.9399,-23.2061, , ,195.2635,89.4136
1307,37.9659,-38.5530, , ,195.2635,89.2381
1308,37.9919,-48.7136, , ,195.2635,89.0914
1309,38.0179,-185.7341, , ,195.2635,88.2285
1310,38.0439,-164.8637, , ,195.2635,88.2561
1311,38.0699,20.1238, , ,195.2635,89.2083
1312,38.0959,78.6178, , ,195.2635,89.4462
1313,38.1219,0.0363, , ,195.2635,88.9159
1314,38.1479,22.5798, , ,195.2635,88.9527
1315,38.1739,-6.4917, , ,195.2635,88.6990
1316,38.1999,-18.9702, , ,195.2635,88.6775
1317,38.2259,-86.7676, , ,195.2635,88.3435
1318,38.2519,168.8710, , ,195.2635,89.8269
1319,38.2779,73.0091, , ,195.2635,89.3402
1320,38.3039,-43.7480, , ,195.2635,88.7332
1321,38.3299,-60.6797, , ,195.2635,88.6866
1322,38.3559,18.6036, , ,195.2635,89.1811
1323,38.3819,85.2706, , ,195.2635,89.6025
1324,38.4079,-33.1654, , ,195.2635,88.9878
1325,38.4339,-20.3921, , ,195.2635,88.9972
1326,38.4599,-39.8622, , ,195.2635,88.8252
1327,38.4859,7.9068, , ,195.2635,89.0313
1328,38.5119,-26.9056, , ,195.2635,88.7730
1329,38.5379,-59.1844, , ,195.2635,88.5283
1330,38.5639,-9.2125, , ,195.2635,88.7475
1331,38.5899,61.7458, , ,195.2635,89.0841
1332,38.6159,200.2913, , ,195.2635,89.7965
1333,38.6419,111.0751, , ,195.2635,89.2361
1334,38.6679,105.0164, , ,195.2635,89.1398
1335,38.6939,246.1896, , ,195.2635,89.8664
1336,38.7199,202.7611, , ,195.2635,89.5624
1337,38.7459,119.7493, , ,195.2635,89.0354
1338,38.7719,112.8789, , ,195.2635,88.9344
1339,38.7979,93.8521, , ,195.2635,88.7648
1340,38.8239,70.3526, , ,195.2635,88.5696
1341,38.8499,-25.8789, , ,195.2635,87.9615
1342,38.8759,-32.2046, , ,195.2635,87.8624
1343,38.9019,29.3667, , ,195.2635,88.2423
1344,38.9279,2.1401, , ,195.2635,88.1181
1345,38.9539,-53.8729, , ,195.2635,87.8301
1346,38.9799,-54.6213, , ,195.2635,87.8562
1347,39.0059,-0.6035, , ,195.2635,88.1933
1348,39.0319,21.7586, , ,195.2635,88.3502
1349,39.0579,-6.6305, , ,195.2635,88.2196
1350,39.0839,-32.2990, , ,195.2635,88.1043
1351,39.1099,33.8334, , ,195.2635,88.5089
1352,39.1359,14.6767, , ,195.2635,88.4019
1353,39.1619,-33.5115, , ,195.2635,88.1302
1354,39.1879,-38.9062, , ,195.2635,88.1009
1355,39.2139,-9.0724, , ,195.2635,88.2713
1356,39.2399,24.2459, , ,195.2635,88.4610
1357,39.2659,54.9013, , ,195.2635,88.6354
1358,39.2919,-7.2031, , ,195.2635,88.2856
1359,39.3179,-70.9790, , ,195.2635,87.9250
1360,39.3439,-5.1959, , ,195.2635,88.2995
1361,39.3699,39.3583, , ,195.2635,88.5634
1362,39.3959,54.1871, , ,195.2635,88.6591
1363,39.4219,43.8612, , ,195.2635,88.6128
1364,39.4479,-48.9524, , ,195.2635,88.0996
1365,39.4739,-29.6647, , ,195.2635,88.2211
1366,39.4999,82.6350, , ,195.2635,88.8672
1367,39.5259,96.3306, , ,195.2635,88.9562
1368,39.5519,52.4281, , ,195.2635,88.7211
1369,39.5779,46.5754, , ,195.2635,88.7000
1370,39.6039,59.3404, , ,195.2635,88.7839
1371,39.6299,-30.1545, , ,195.2635,88.2905
1372,39.6559,-36.0228, , ,195.2635,88.2693
1373,39.6819,40.0461, , ,195.2635,88.7111
1374,39.7079,33.5848, , ,195.2635,88.6867
1375,39.7339,70.3296, , ,195.2635,88.9056
1376,39.7599,95.1073, , ,195.2635,89.0567
1377,39.7859,100.1513, , ,195.2635,89.0970
1378,39.8119,90.5480, , ,195.2635,89.0550
1379,39.8379,55.5688, , ,195.2635,88.8703
1380,39.8639,151.8140, , ,195.2635,89.4221
1381,39.8899,111.8866, , ,195.2635,89.2104
1382,39.9159,-58.0165, , ,195.2635,88.2651
1383,39.9419,89.2940, , ,195.2635,89.1076
1384,39.9679,1.0623, , ,195.2635,88.6111
