No.,Pos. [°2Th.],Iobs [cts],Icalc [cts],Iback [cts],CT [s],ESD
1,4.0099,0.0000, , ,195.2635,261.3343
2,4.0359,-2546.9290, , ,195.2635,255.2901
3,4.0619,-4569.7050, , ,195.2635,250.1491
4,4.0879,-5477.8380, , ,195.2635,247.1655
5,4.1139,-5803.8860, , ,195.2635,245.3346
6,4.1399,-6736.9430, , ,195.2635,242.2403
7,4.1659,-6921.1930, , ,195.2635,240.6666
8,4.1919,-7103.5920, , ,195.2635,239.0865
9,4.2179,-6813.9770, , ,195.2635,238.4875
10,4.2439,-7039.9470, , ,195.2635,236.8009
11,4.2699,-6419.7730, , ,195.2635,236.8619
12,4.2959,-6126.0740, , ,195.2635,236.2329
13,4.3219,-5213.2890, , ,195.2635,236.9125
14,4.3479,-4317.0760, , ,195.2635,237.5552
15,4.3739,-3020.6210, , ,195.2635,239.0348
16,4.3999,-1146.1960, , ,195.2635,241.7040
17,4.4259,1098.1090, , ,195.2635,245.0997
18,4.4519,4318.6830, , ,195.2635,250.4060
19,4.4779,8532.5840, , ,195.2635,257.5379
20,4.5039,14251.6800, , ,195.2635,267.3081
21,4.5299,21463.5000, , ,195.2635,279.4176
22,4.5559,30563.6400, , ,195.2635,294.2500
23,4.5819,39092.6900, , ,195.2635,307.4424
24,4.6079,45064.4600, , ,195.2635,316.0717
25,4.6339,46286.5400, , ,195.2635,317.0681
26,4.6599,42632.0600, , ,195.2635,310.3005
27,4.6859,34717.7900, , ,195.2635,296.2784
28,4.7119,24709.8400, , ,195.2635,277.8158
29,4.7379,15963.6500, , ,195.2635,260.4392
30,4.7639,9548.9570, , ,195.2635,246.5908
31,4.7899,5320.3080, , ,195.2635,236.5830
32,4.8159,2745.2770, , ,195.2635,229.7599
33,4.8419,1168.0390, , ,195.2635,224.9567
34,4.8679,520.1255, , ,195.2635,222.1502
35,4.8939,367.0343, , ,195.2635,220.4331
36,4.9199,289.5262, , ,195.2635,218.8753
37,4.9459,158.4821, , ,195.2635,217.1831
38,4.9719,-226.5644, , ,195.2635,215.1777
39,4.9979,-407.3309, , ,195.2635,213.6321
40,5.0239,-539.7876, , ,195.2635,212.1891
41,5.0499,-413.9277, , ,195.2635,211.3482
42,5.0759,-272.0474, , ,195.2635,210.5420
43,5.1019,-103.6789, , ,195.2635,209.7959
44,5.1279,-154.7304, , ,195.2635,208.5216
45,5.1539,-135.9113, , ,195.2635,207.4080
46,5.1799,45.2872, , ,195.2635,206.6816
47,5.2059,-30.1309, , ,195.2635,205.7271
48,5.2319,4.5888, , ,195.2635,205.0369
49,5.2579,-41.9123, , ,195.2635,204.1456
50,5.2839,-120.0413, , ,195.2635,203.1725
51,5.3099,-95.6331, , ,195.2635,202.4482
52,5.3359,33.0060, , ,195.2635,201.9794
53,5.3619,70.5323, , ,195.2635,201.2833
54,5.3879,-6.2511, , ,195.2635,200.2997
55,5.4139,6.6259, , ,195.2635,199.5360
56,5.4399,-61.1552, , ,195.2635,198.7823
57,5.4659,-134.7407, , ,195.2635,198.0110
58,5.4919,-221.2111, , ,195.2635,197.2041
59,5.5179,-228.6303, , ,195.2635,196.5950
60,5.5439,-120.5270, , ,195.2635,196.2785
61,5.5699,78.3676, , ,195.2635,196.1930
62,5.5959,-80.4442, , ,195.2635,195.1934
63,5.6219,-143.3734, , ,195.2635,194.4353
64,5.6479,61.6572, , ,195.2635,194.3648
65,5.6739,15.8366, , ,195.2635,193.8735
66,5.6999,-2.4334, , ,195.2635,193.4523
67,5.7259,-154.3042, , ,195.2635,192.6838
68,5.7519,-70.5584, , ,195.2635,192.5250
69,5.7779,16.1044, , ,195.2635,192.3738
70,5.8039,-82.8846, , ,195.2635,191.7388
71,5.8299,-100.8503, , ,195.2635,191.3137
72,5.8559,-35.4184, , ,195.2635,191.1059
73,5.8819,-51.0789, , ,195.2635,190.6854
74,5.9079,69.9223, , ,195.2635,190.7515
75,5.9339,19.3715, , ,195.2635,190.3676
76,5.9599,130.2104, , ,195.2635,190.4071
77,5.9859,-144.9076, , ,195.2635,189.4307
78,6.0119,-151.9849, , ,195.2635,189.1590
79,6.0379,-26.8178, , ,195.2635,189.2367
80,6.0639,21.8215, , ,195.2635,189.1121
81,6.0899,-66.9708, , ,195.2635,188.6235
82,6.1159,-64.6799, , ,195.2635,188.3755
83,6.1419,84.6873, , ,195.2635,188.6768
84,6.1679,116.1288, , ,195.2635,188.6653
85,6.1939,194.7873, , ,195.2635,188.7789
86,6.2199,274.1835, , ,195.2635,188.8945
87,6.2459,669.0333, , ,195.2635,189.8426
88,6.2719,957.2458, , ,195.2635,190.5063
89,6.2979,1714.7190, , ,195.2635,192.3911
90,6.3239,2646.5900, , ,195.2635,194.7061
91,6.3499,3823.9310, , ,195.2635,197.6159
92,6.3759,5305.5440, , ,195.2635,201.2104
93,6.4019,7542.6370, , ,195.2635,206.5785
94,6.4279,9985.9840, , ,195.2635,212.2970
95,6.4539,12778.3400, , ,195.2635,218.6649
96,6.4799,14848.8800, , ,195.2635,223.2417
97,6.5059,15976.1100, , ,195.2635,225.6458
98,6.5319,15436.1300, , ,195.2635,224.3391
99,6.5579,13369.2300, , ,195.2635,219.5748
100,6.5839,10620.6600, , ,195.2635,213.1115
101,6.6099,7349.4320, , ,195.2635,205.1456
102,6.6359,4945.1180, , ,195.2635,199.0473
103,6.6619,3307.4040, , ,195.2635,194.7345
104,6.6879,2465.1580, , ,195.2635,192.4025
105,6.7139,2031.3310, , ,195.2635,191.1134
106,6.7399,1895.1960, , ,195.2635,190.5980
107,6.7659,1549.4070, , ,195.2635,189.5290
108,6.7919,1636.4460, , ,195.2635,189.5988
109,6.8179,1426.3550, , ,195.2635,188.8837
110,6.8439,1284.6910, , ,195.2635,188.3476
111,6.8699,1200.1810, , ,195.2635,187.9620
112,6.8959,1437.2170, , ,195.2635,188.4308
113,6.9219,1249.3200, , ,195.2635,187.7704
114,6.9479,1440.4650, , ,195.2635,188.1177
115,6.9739,1527.0520, , ,195.2635,188.1869
116,6.9999,1385.7150, , ,195.2635,187.6496
117,7.0259,1239.8730, , ,195.2635,187.0988
118,7.0519,1499.4550, , ,195.2635,187.6299
119,7.0779,1491.7320, , ,195.2635,187.4143
120,7.1039,1068.7360, , ,195.2635,186.0860
121,7.1299,1069.5570, , ,195.2635,185.8917
122,7.1559,1037.9460, , ,195.2635,185.6098
123,7.1819,1102.3260, , ,195.2635,185.5862
124,7.2079,1103.0730, , ,195.2635,185.3911
125,7.2339,1021.6170, , ,195.2635,184.9738
126,7.2599,974.4263, , ,195.2635,184.6483
127,7.2859,923.6085, , ,195.2635,184.3124
128,7.3119,682.2071, , ,195.2635,183.4222
129,7.3379,538.8840, , ,195.2635,182.7961
130,7.3639,746.7786, , ,195.2635,183.1293
131,7.3899,711.0858, , ,195.2635,182.7969
132,7.4159,682.9743, , ,195.2635,182.4847
133,7.4419,672.1817, , ,195.2635,182.2194
134,7.4679,623.2165, , ,195.2635,181.8488
135,7.4939,480.0174, , ,195.2635,181.2176
136,7.5199,483.5146, , ,195.2635,180.9900
137,7.5459,657.0851, , ,195.2635,181.1942
138,7.5719,650.4100, , ,195.2635,180.9006
139,7.5979,406.0985, , ,195.2635,179.9475
140,7.6239,418.2625, , ,195.2635,179.7044
141,7.6499,397.1079, , ,195.2635,179.3680
142,7.6759,486.3336, , ,195.2635,179.3391
143,7.7019,789.8351, , ,195.2635,179.9066
144,7.7279,1173.3590, , ,195.2635,180.6939
145,7.7539,1742.3120, , ,195.2635,181.9880
146,7.7799,2561.1360, , ,195.2635,183.9123
147,7.8059,3489.4460, , ,195.2635,186.1111
148,7.8319,4960.7320, , ,195.2635,189.7206
149,7.8579,6689.1320, , ,195.2635,193.9267
150,7.8839,8735.9930, , ,195.2635,198.8460
151,7.9099,10799.2700, , ,195.2635,203.6867
152,7.9359,11907.9300, , ,195.2635,206.1122
153,7.9619,12004.4400, , ,195.2635,206.0680
154,7.9879,11190.7700, , ,195.2635,203.8029
155,8.0139,9446.4860, , ,195.2635,199.1547
156,8.0399,6860.3180, , ,195.2635,192.2177
157,8.0659,4380.3920, , ,195.2635,185.3078
158,8.0919,2647.4850, , ,195.2635,180.2146
159,8.1179,1468.9680, , ,195.2635,176.5504
160,8.1439,969.0900, , ,195.2635,174.7609
161,8.1699,781.0858, , ,195.2635,173.8523
162,8.1959,555.5864, , ,195.2635,172.8304
163,8.2219,357.6165, , ,195.2635,171.8826
164,8.2479,254.0054, , ,195.2635,171.1692
165,8.2739,135.4772, , ,195.2635,170.4091
166,8.2999,39.9314, , ,195.2635,169.7133
167,8.3259,161.5591, , ,195.2635,169.6559
168,8.3519,179.1840, , ,195.2635,169.2916
169,8.3779,150.1964, , ,195.2635,168.7884
170,8.4039,-27.2163, , ,195.2635,167.8422
171,8.4299,-50.8006, , ,195.2635,167.3509
172,8.4559,-45.4233, , ,195.2635,166.9448
173,8.4819,67.5435, , ,195.2635,166.9171
174,8.5079,100.7173, , ,195.2635,166.6502
175,8.5339,76.8319, , ,195.2635,166.2112
176,8.5599,11.4508, , ,195.2635,165.6459
177,8.5859,50.2585, , ,195.2635,165.3939
178,8.6119,-59.2145, , ,195.2635,164.6920
179,8.6379,-84.3513, , ,195.2635,164.2440
180,8.6639,62.6390, , ,195.2635,164.3194
181,8.6899,15.0962, , ,195.2635,163.8020
182,8.7159,18.0475, , ,195.2635,163.5224
183,8.7419,-96.0711, , ,195.2635,162.8833
184,8.7679,12.7771, , ,195.2635,162.9275
185,8.7939,106.0681, , ,195.2635,162.9238
186,8.8199,112.0568, , ,195.2635,162.6521
187,8.8459,84.7649, , ,195.2635,162.2773
188,8.8719,-14.1999, , ,195.2635,161.6802
189,8.8979,254.8657, , ,195.2635,162.2193
190,8.9239,418.2997, , ,195.2635,162.4317
191,8.9499,300.6891, , ,195.2635,161.7505
192,8.9759,741.1571, , ,195.2635,162.7896
193,9.0019,1038.3760, , ,195.2635,163.3844
194,9.0279,1914.0070, , ,195.2635,165.7313
195,9.0539,2946.8430, , ,195.2635,168.5126
196,9.0799,4394.0420, , ,195.2635,172.4542
197,9.1059,5855.0040, , ,195.2635,176.3468
198,9.1319,6727.5950, , ,195.2635,178.5149
199,9.1579,8065.8010, , ,195.2635,181.9411
200,9.1839,8016.0400, , ,195.2635,181.5202
201,9.2099,7267.9250, , ,195.2635,179.1598
202,9.2359,5975.4780, , ,195.2635,175.2215
203,9.2619,4248.9100, , ,195.2635,169.9199
204,9.2879,2772.7070, , ,195.2635,165.2070
205,9.3139,1816.2540, , ,195.2635,161.9681
206,9.3399,1141.7750, , ,195.2635,159.5493
207,9.3659,524.2576, , ,195.2635,157.2744
208,9.3919,154.5316, , ,195.2635,155.7635
209,9.4179,279.0079, , ,195.2635,155.8037
210,9.4439,237.0015, , ,195.2635,155.3087
211,9.4699,-26.3763, , ,195.2635,154.0956
212,9.4959,32.8782, , ,195.2635,153.9245
213,9.5219,98.4160, , ,195.2635,153.7736
214,9.5479,130.3028, , ,195.2635,153.5129
215,9.5739,-134.6531, , ,195.2635,152.2803
216,9.5999,48.7032, , ,195.2635,152.5145
217,9.6259,-0.0048, , ,195.2635,151.9868
218,9.6519,9.0163, , ,195.2635,151.7627
219,9.6779,-11.5564, , ,195.2635,151.4405
220,9.7039,-35.1145, , ,195.2635,151.1078
221,9.7299,-23.0380, , ,195.2635,150.8924
222,9.7559,115.9849, , ,195.2635,151.0974
223,9.7819,33.5170, , ,195.2635,150.5684
224,9.8079,55.4409, , ,195.2635,150.3850
225,9.8339,42.3641, , ,195.2635,150.0849
226,9.8599,-95.3224, , ,195.2635,149.3676
227,9.8859,68.0965, , ,195.2635,149.7171
228,9.9119,-71.3154, , ,195.2635,149.0534
229,9.9379,19.3683, , ,195.2635,149.1600
230,9.9639,35.5903, , ,195.2635,149.0169
231,9.9899,-87.6322, , ,195.2635,148.4046
232,10.0159,-23.5929, , ,195.2635,148.4219
233,10.0419,52.3588, , ,195.2635,148.4794
234,10.0679,-100.5344, , ,195.2635,147.7645
235,10.0939,-112.2332, , ,195.2635,147.5255
236,10.1199,166.5464, , ,195.2635,148.2183
237,10.1459,344.5693, , ,195.2635,148.5691
238,10.1719,626.1594, , ,195.2635,149.2665
239,10.1979,832.8334, , ,195.2635,149.7106
240,10.2239,1136.7490, , ,195.2635,150.4769
241,10.2499,1117.5500, , ,195.2635,150.1673
242,10.2759,921.5152, , ,195.2635,149.2658
243,10.3019,740.3301, , ,195.2635,148.4090
244,10.3279,612.0353, , ,195.2635,147.7262
245,10.3539,501.9610, , ,195.2635,147.1023
246,10.3799,365.7491, , ,195.2635,146.3864
247,10.4059,166.5035, , ,195.2635,145.4505
248,10.4319,-19.3062, , ,195.2635,144.5550
249,10.4579,-23.4142, , ,195.2635,144.2849
250,10.4839,-29.8323, , ,195.2635,144.0064
251,10.5099,-16.7033, , ,195.2635,143.7953
252,10.5359,39.7497, , ,195.2635,143.7346
253,10.5619,-4.8751, , ,195.2635,143.3218
254,10.5879,-60.3162, , ,195.2635,142.9348
255,10.6139,8.3605, , ,195.2635,142.9814
256,10.6399,104.6039, , ,195.2635,143.1244
257,10.6659,-14.5056, , ,195.2635,142.5137
258,10.6919,-129.3466, , ,195.2635,141.9154
259,10.7179,-68.1284, , ,195.2635,141.9362
260,10.7439,-10.0772, , ,195.2635,141.9457
261,10.7699,48.9595, , ,195.2635,141.9588
262,10.7959,33.8656, , ,195.2635,141.7105
263,10.8219,-5.9708, , ,195.2635,141.3621
264,10.8479,-150.7527, , ,195.2635,140.6403
265,10.8739,-236.2529, , ,195.2635,140.1264
266,10.8999,-69.1448, , ,195.2635,140.5124
267,10.9259,-85.7088, , ,195.2635,140.2441
268,10.9519,-169.6868, , ,195.2635,139.7342
269,10.9779,-74.2882, , ,195.2635,139.8652
270,11.0039,105.5231, , ,195.2635,140.2972
271,11.0299,260.2609, , ,195.2635,140.6388
272,11.0559,367.2079, , ,195.2635,140.8099
273,11.0819,572.5246, , ,195.2635,141.3293
274,11.1079,1286.0100, , ,195.2635,143.6269
275,11.1339,1993.5180, , ,195.2635,145.8678
276,11.1599,2621.3020, , ,195.2635,147.8053
277,11.1859,3189.8350, , ,195.2635,149.5198
278,11.2119,3421.2050, , ,195.2635,150.0958
279,11.2379,3355.8710, , ,195.2635,149.6818
280,11.2639,3093.7680, , ,195.2635,148.6061
281,11.2899,2442.9500, , ,195.2635,146.1713
282,11.3159,1804.5870, , ,195.2635,143.7387
283,11.3419,1131.3060, , ,195.2635,141.1405
284,11.3679,678.2562, , ,195.2635,139.2864
285,11.3939,270.7023, , ,195.2635,137.5727
286,11.4199,344.2992, , ,195.2635,137.5971
287,11.4459,25.4177, , ,195.2635,136.1881
288,11.4719,20.3233, , ,195.2635,135.9236
289,11.4979,75.5458, , ,195.2635,135.8806
290,11.5239,-6.5969, , ,195.2635,135.3902
291,11.5499,-79.8680, , ,195.2635,134.9309
292,11.5759,-89.4496, , ,195.2635,134.7067
293,11.6019,152.8120, , ,195.2635,135.4151
294,11.6279,119.3505, , ,195.2635,135.1033
295,11.6539,-6.5666, , ,195.2635,134.4474
296,11.6799,-30.4289, , ,195.2635,134.1691
297,11.7059,57.9505, , ,195.2635,134.3087
298,11.7319,-5.3948, , ,195.2635,133.8828
299,11.7579,-66.7363, , ,195.2635,133.5454
300,11.7839,37.9353, , ,195.2635,133.8288
301,11.8099,258.8280, , ,195.2635,134.5443
302,11.8359,-0.9134, , ,195.2635,133.4673
303,11.8619,104.4222, , ,195.2635,133.7534
304,11.8879,-127.6627, , ,195.2635,132.7743
305,11.9139,-125.6462, , ,195.2635,132.6730
306,11.9399,-43.5414, , ,195.2635,132.8734
307,11.9659,-60.6688, , ,195.2635,132.7002
308,11.9919,92.5749, , ,195.2635,133.1403
309,12.0179,226.7829, , ,195.2635,133.5078
310,12.0439,44.9790, , ,195.2635,132.6888
311,12.0699,72.2134, , ,195.2635,132.6549
312,12.0959,-60.9594, , ,195.2635,132.0149
313,12.1219,34.9614, , ,195.2635,132.2408
314,12.1479,11.8640, , ,195.2635,132.0163
315,12.1739,-43.2639, , ,195.2635,131.6699
316,12.1999,29.0256, , ,195.2635,131.8068
317,12.2259,84.5850, , ,195.2635,131.8852
318,12.2519,-148.5826, , ,195.2635,130.8650
319,12.2779,-80.8429, , ,195.2635,130.9904
320,12.3039,20.6230, , ,195.2635,131.2443
321,12.3299,20.7634, , ,195.2635,131.1119
322,12.3559,42.0101, , ,195.2635,131.0598
323,12.3819,23.5320, , ,195.2635,130.8561
324,12.4079,9.3540, , ,195.2635,130.6684
325,12.4339,35.9797, , ,195.2635,130.6368
326,12.4599,-60.1034, , ,195.2635,130.1090
327,12.4859,-24.1781, , ,195.2635,130.0873
328,12.5119,83.4021, , ,195.2635,130.3408
329,12.5379,-14.4708, , ,195.2635,129.8049
330,12.5639,-33.2242, , ,195.2635,129.5724
331,12.5899,-57.1669, , ,195.2635,129.3194
332,12.6159,-39.7681, , ,195.2635,129.2259
333,12.6419,-57.8889, , ,195.2635,128.9948
334,12.6679,61.6628, , ,195.2635,129.2968
335,12.6939,-23.4966, , ,195.2635,128.8770
336,12.7199,21.6885, , ,195.2635,128.9622
337,12.7459,76.2604, , ,195.2635,129.0837
338,12.7719,65.1627, , ,195.2635,128.9507
339,12.7979,-64.4307, , ,195.2635,128.3568
340,12.8239,-10.3681, , ,195.2635,128.4768
341,12.8499,0.5615, , ,195.2635,128.4290
342,12.8759,129.2369, , ,195.2635,128.8389
343,12.9019,118.4597, , ,195.2635,128.7069
344,12.9279,76.0365, , ,195.2635,128.4516
345,12.9539,83.2458, , ,195.2635,128.3893
346,12.9799,95.3900, , ,195.2635,128.3461
347,13.0059,116.5689, , ,195.2635,128.3381
348,13.0319,69.6913, , ,195.2635,128.0647
349,13.0579,58.2012, , ,195.2635,127.9292
350,13.0839,179.6114, , ,195.2635,128.3123
351,13.1099,84.3972, , ,195.2635,127.8500
352,13.1359,-35.0608, , ,195.2635,127.2908
353,13.1619,-65.0898, , ,195.2635,127.1666
354,13.1879,-124.8949, , ,195.2635,126.9252
355,13.2139,-146.0102, , ,195.2635,126.8358
356,13.2399,-58.5508, , ,195.2635,127.1740
357,13.2659,57.1034, , ,195.2635,127.6218
358,13.2919,21.4301, , ,195.2635,127.4759
359,13.3179,-73.4010, , ,195.2635,127.0972
360,13.3439,-43.9373, , ,195.2635,127.2070
361,13.3699,17.3005, , ,195.2635,127.4414
362,13.3959,-14.0937, , ,195.2635,127.3010
363,13.4219,117.0077, , ,195.2635,127.7978
364,13.4479,161.0709, , ,195.2635,127.9531
365,13.4739,48.9207, , ,195.2635,127.4970
366,13.4999,-59.4993, , ,195.2635,127.0539
367,13.5259,22.7425, , ,195.2635,127.3600
368,13.5519,89.9650, , ,195.2635,127.6066
369,13.5779,168.3807, , ,195.2635,127.8964
370,13.6039,434.9274, , ,195.2635,128.9173
371,13.6299,1039.8660, , ,195.2635,131.1781
372,13.6559,1721.9270, , ,195.2635,133.6893
373,13.6819,2306.4440, , ,195.2635,135.7954
374,13.7079,2858.3970, , ,195.2635,137.7513
375,13.7339,3356.8940, , ,195.2635,139.4883
376,13.7599,3520.2870, , ,195.2635,140.0123
377,13.7859,3081.6900, , ,195.2635,138.3760
378,13.8119,2361.0740, , ,195.2635,135.6849
379,13.8379,1796.1040, , ,195.2635,133.5233
380,13.8639,1056.0460, , ,195.2635,130.6579
381,13.8899,445.2586, , ,195.2635,128.2333
382,13.9159,333.5160, , ,195.2635,127.7306
383,13.9419,218.7327, , ,195.2635,127.2139
384,13.9679,85.4493, , ,195.2635,126.6222
385,13.9939,-42.2311, , ,195.2635,126.0498
386,14.0199,105.0582, , ,195.2635,126.5659
387,14.0459,-27.1051, , ,195.2635,125.9755
388,14.0719,-57.1749, , ,195.2635,125.7888
389,14.0979,69.2930, , ,195.2635,126.1686
390,14.1239,31.0752, , ,195.2635,125.8949
391,14.1499,-170.5626, , ,195.2635,124.9684
392,14.1759,-129.3555, , ,195.2635,125.0101
393,14.2019,-27.3545, , ,195.2635,125.2947
394,14.2279,18.1940, , ,195.2635,125.3536
395,14.2539,41.7755, , ,195.2635,125.3249
396,14.2799,65.2306, , ,195.2635,125.2957
397,14.3059,49.2849, , ,195.2635,125.1091
398,14.3319,-43.4429, , ,195.2635,124.6145
399,14.3579,112.9501, , ,195.2635,125.1175
400,14.3839,-14.1581, , ,195.2635,124.4850
401,14.4099,-108.2566, , ,195.2635,123.9824
402,14.4359,48.8285, , ,195.2635,124.4907
403,14.4619,-46.1679, , ,195.2635,123.9845
404,14.4879,-35.6020, , ,195.2635,123.9030
405,14.5139,70.8740, , ,195.2635,124.2081
406,14.5399,75.2778, , ,195.2635,124.1019
407,14.5659,-127.8561, , ,195.2635,123.2086
408,14.5919,-74.4761, , ,195.2635,123.3530
409,14.6179,128.0116, , ,195.2635,124.0995
410,14.6439,-37.0358, , ,195.2635,123.3607
411,14.6699,-0.3629, , ,195.2635,123.4372
412,14.6959,43.6562, , ,195.2635,123.5435
413,14.7219,-71.7687, , ,195.2635,123.0032
414,14.7479,50.5545, , ,195.2635,123.4274
415,14.7739,-56.3095, , ,195.2635,122.9215
416,14.7999,32.9640, , ,195.2635,123.2489
417,14.8259,-10.3424, , ,195.2635,123.0379
418,14.8519,-19.5322, , ,195.2635,122.9653
419,14.8779,-204.0087, , ,195.2635,122.1774
420,14.9039,-25.8546, , ,195.2635,122.8691
421,14.9299,70.3433, , ,195.2635,123.2248
422,14.9559,-15.8073, , ,195.2635,122.8394
423,14.9819,-22.9863, , ,195.2635,122.7749
424,15.0079,12.9569, , ,195.2635,122.8860
425,15.0339,25.3572, , ,195.2635,122.8803
426,15.0599,-67.6128, , ,195.2635,122.4452
427,15.0859,-105.2886, , ,195.2635,122.2349
428,15.1119,-123.2345, , ,195.2635,122.1051
429,15.1379,-34.6409, , ,195.2635,122.4111
430,15.1639,-87.8128, , ,195.2635,122.1373
431,15.1899,185.3092, , ,195.2635,123.1944
432,15.2159,193.0885, , ,195.2635,123.1701
433,15.2419,52.0166, , ,195.2635,122.5399
434,15.2679,116.2905, , ,195.2635,122.7457
435,15.2939,-67.9515, , ,195.2635,121.9364
436,15.3199,-23.4171, , ,195.2635,122.0625
437,15.3459,-51.1265, , ,195.2635,121.8924
438,15.3719,-27.4333, , ,195.2635,121.9331
439,15.3979,-8.1587, , ,195.2635,121.9556
440,15.4239,67.5008, , ,195.2635,122.2091
441,15.4499,73.1374, , ,195.2635,122.1758
442,15.4759,-29.5998, , ,195.2635,121.6980
443,15.5019,-23.8964, , ,195.2635,121.6849
444,15.5279,-83.4291, , ,195.2635,121.4034
445,15.5539,-88.7044, , ,195.2635,121.3451
446,15.5799,10.8733, , ,195.2635,121.7182
447,15.6059,45.2076, , ,195.2635,121.8227
448,15.6319,101.1484, , ,195.2635,122.0156
449,15.6579,37.0476, , ,195.2635,121.7162
450,15.6839,-72.1873, , ,195.2635,121.2300
451,15.7099,-16.9366, , ,195.2635,121.4210
452,15.7359,26.9900, , ,195.2635,121.5698
453,15.7619,130.2827, , ,195.2635,121.9620
454,15.7879,266.6730, , ,195.2635,122.4881
455,15.8139,277.7522, , ,195.2635,122.5016
456,15.8399,238.3483, , ,195.2635,122.3089
457,15.8659,275.6215, , ,195.2635,122.4294
458,15.8919,383.2610, , ,195.2635,122.8365
459,15.9179,388.0716, , ,195.2635,122.8245
460,15.9439,236.5309, , ,195.2635,122.1742
461,15.9699,153.0531, , ,195.2635,121.8001
462,15.9959,124.9019, , ,195.2635,121.6526
463,16.0219,38.6437, , ,195.2635,121.2655
464,16.0479,70.1912, , ,195.2635,121.3634
465,16.0739,46.3589, , ,195.2635,121.2331
466,16.0999,82.9703, , ,195.2635,121.3520
467,16.1259,20.2497, , ,195.2635,121.0612
468,16.1519,-51.6351, , ,195.2635,120.7317
469,16.1779,34.7597, , ,195.2635,121.0568
470,16.2039,-2.3493, , ,195.2635,120.9127
471,16.2299,-6.7260, , ,195.2635,120.9038
472,16.2559,-50.2775, , ,195.2635,120.7327
473,16.2819,-8.8245, , ,195.2635,120.9135
474,16.3079,-51.3013, , ,195.2635,120.7469
475,16.3339,-60.1098, , ,195.2635,120.7196
476,16.3599,-96.3053, , ,195.2635,120.5788
477,16.3859,0.0602, , ,195.2635,120.9869
478,16.4119,35.8416, , ,195.2635,121.1439
479,16.4379,7.1100, , ,195.2635,120.9844
480,16.4639,27.8198, , ,195.2635,121.0291
481,16.4899,189.0551, , ,195.2635,121.6527
482,16.5159,145.0107, , ,195.2635,121.4309
483,16.5419,128.0800, , ,195.2635,121.3204
484,16.5679,165.9423, , ,195.2635,121.4356
485,16.5939,276.0965, , ,195.2635,121.8478
486,16.6199,232.3213, , ,195.2635,121.6273
487,16.6459,63.1973, , ,195.2635,120.8892
488,16.6719,40.4075, , ,195.2635,120.7540
489,16.6979,78.7512, , ,195.2635,120.8717
490,16.7239,-21.1378, , ,195.2635,120.4168
491,16.7499,21.4068, , ,195.2635,120.5523
492,16.7759,43.1153, , ,195.2635,120.6013
493,16.8019,-88.2358, , ,195.2635,120.0143
494,16.8279,-51.9642, , ,195.2635,120.1242
495,16.8539,-0.1045, , ,195.2635,120.2987
496,16.8799,55.4635, , ,195.2635,120.4884
497,16.9059,-55.0590, , ,195.2635,120.0497
498,16.9319,66.1004, , ,195.2635,120.5740
499,16.9579,-62.2885, , ,195.2635,120.0613
500,16.9839,79.3194, , ,195.2635,120.6703
501,17.0099,30.7465, , ,195.2635,120.4896
502,17.0359,199.2984, , ,195.2635,121.2077
503,17.0619,-6.9864, , ,195.2635,120.3745
504,17.0879,220.4186, , ,195.2635,121.3360
505,17.1139,148.6131, , ,195.2635,121.0604
506,17.1399,-149.7278, , ,195.2635,119.8427
507,17.1659,-37.9309, , ,195.2635,120.3290
508,17.1919,102.6152, , ,195.2635,120.9323
509,17.2179,34.5101, , ,195.2635,120.6711
510,17.2439,97.4215, , ,195.2635,120.9521
511,17.2699,70.3630, , ,195.2635,120.8609
512,17.2959,-84.5658, , ,195.2635,120.2391
513,17.3219,-21.7103, , ,195.2635,120.5209
514,17.3479,113.1591, , ,195.2635,121.0998
515,17.3739,-50.9541, , ,195.2635,120.3806
516,17.3999,-13.8823, , ,195.2635,120.4948
517,17.4259,14.9872, , ,195.2635,120.5750
518,17.4519,32.6054, , ,195.2635,120.6084
519,17.4779,-38.4827, , ,195.2635,120.2736
520,17.5039,-46.2817, , ,195.2635,120.2014
521,17.5299,-0.3227, , ,195.2635,120.3528
522,17.5559,138.5131, , ,195.2635,120.8887
523,17.5819,-40.7202, , ,195.2635,120.1053
524,17.6079,-78.6987, , ,195.2635,119.9610
525,17.6339,-33.4428, , ,195.2635,120.1633
526,17.6599,-13.6681, , ,195.2635,120.2594
527,17.6859,16.2773, , ,195.2635,120.3977
528,17.7119,-29.7063, , ,195.2635,120.2205
529,17.7379,-46.1874, , ,195.2635,120.1658
530,17.7639,-41.6061, , ,195.2635,120.1987
531,17.7899,-36.8345, , ,195.2635,120.2324
532,17.8159,1.0790, , ,195.2635,120.4038
533,17.8419,74.8940, , ,195.2635,120.6998
534,17.8679,11.2843, , ,195.2635,120.4259
535,17.8939,-107.4590, , ,195.2635,119.9217
536,17.9199,-6.5139, , ,195.2635,120.3317
537,17.9459,139.6877, , ,195.2635,120.9275
538,17.9719,46.0400, , ,195.2635,120.5296
539,17.9979,-34.2763, , ,195.2635,120.1857
540,18.0239,-30.0883, , ,195.2635,120.1930
541,18.0499,17.4969, , ,195.2635,120.3806
542,18.0759,41.8089, , ,195.2635,120.4617
543,18.1019,-3.3549, , ,195.2635,120.2543
544,18.1279,4.2754, , ,195.2635,120.2661
545,18.1539,34.8346, , ,195.2635,120.3733
546,18.1799,46.7352, , ,195.2635,120.4029
547,18.2059,-5.2745, , ,195.2635,120.1668
548,18.2319,-60.8291, , ,195.2635,119.9155
549,18.2579,32.6796, , ,195.2635,120.2849
550,18.2839,252.6169, , ,195.2635,121.1760
551,18.3099,272.0450, , ,195.2635,121.2364
552,18.3359,142.5788, , ,195.2635,120.6815
553,18.3619,258.7066, , ,195.2635,121.1420
554,18.3879,399.3900, , ,195.2635,121.7016
555,18.4139,245.6078, , ,195.2635,121.0484
556,18.4399,18.5491, , ,195.2635,120.0870
557,18.4659,18.8670, , ,195.2635,120.0684
558,18.4919,42.5103, , ,195.2635,120.1469
559,18.5179,-25.3882, , ,195.2635,119.8441
560,18.5439,3.4614, , ,195.2635,120.0195
561,18.5699,42.9181, , ,195.2635,120.2388
562,18.5959,-45.1788, , ,195.2635,119.9270
563,18.6219,-68.8781, , ,195.2635,119.8833
564,18.6479,109.6455, , ,195.2635,120.6804
565,18.6739,86.1238, , ,195.2635,120.6377
566,18.6999,-21.8627, , ,195.2635,120.2443
567,18.7259,76.5328, , ,195.2635,120.7075
568,18.7519,222.0799, , ,195.2635,121.3634
569,18.7779,174.8323, , ,195.2635,121.1675
570,18.8039,167.4638, , ,195.2635,121.1359
571,18.8299,364.3165, , ,195.2635,121.9446
572,18.8559,629.5903, , ,195.2635,123.0263
573,18.8819,789.4214, , ,195.2635,123.6731
574,18.9079,961.8099, , ,195.2635,124.3670
575,18.9339,952.2185, , ,195.2635,124.3273
576,18.9599,725.8857, , ,195.2635,123.4126
577,18.9859,543.2633, , ,195.2635,122.6693
578,19.0119,421.0789, , ,195.2635,122.1691
579,19.0379,124.0848, , ,195.2635,120.9464
580,19.0639,23.4284, , ,195.2635,120.5284
581,19.0899,-37.2893, , ,195.2635,120.2751
582,19.1159,-105.6149, , ,195.2635,119.9896
583,19.1419,-145.5762, , ,195.2635,119.8218
584,19.1679,-94.5951, , ,195.2635,120.0332
585,19.1939,-6.9264, , ,195.2635,120.3966
586,19.2199,-40.8728, , ,195.2635,120.2544
587,19.2459,87.9572, , ,195.2635,120.7691
588,19.2719,67.1469, , ,195.2635,120.6631
589,19.2979,-3.8105, , ,195.2635,120.3489
590,19.3239,47.9100, , ,195.2635,120.5438
591,19.3499,151.9485, , ,195.2635,120.9548
592,19.3759,2.8568, , ,195.2635,120.3170
593,19.4019,182.2823, , ,195.2635,121.0406
594,19.4279,317.3921, , ,195.2635,121.5778
595,19.4539,143.5097, , ,195.2635,120.8408
596,19.4799,15.2055, , ,195.2635,120.2889
597,19.5059,202.3138, , ,195.2635,121.0444
598,19.5319,58.8580, , ,195.2635,120.4306
599,19.5579,224.4298, , ,195.2635,121.0963
600,19.5839,274.0367, , ,195.2635,121.2813
601,19.6099,43.1160, , ,195.2635,120.3056
602,19.6359,-123.2955, , ,195.2635,119.5921
603,19.6619,150.1700, , ,195.2635,120.7102
604,19.6879,58.7138, , ,195.2635,120.3109
605,19.7139,-113.0579, , ,195.2635,119.6711
606,19.7399,21.3923, , ,195.2635,120.3073
607,19.7659,-103.7563, , ,195.2635,119.8620
608,19.7919,60.5184, , ,195.2635,120.6209
609,19.8179,289.5702, , ,195.2635,121.6416
610,19.8439,135.2146, , ,195.2635,121.0807
611,19.8699,221.5960, , ,195.2635,121.5119
612,19.8959,374.7273, , ,195.2635,122.2150
613,19.9219,99.6346, , ,195.2635,121.1595
614,19.9479,186.4034, , ,195.2635,121.5920
615,19.9739,92.8881, , ,195.2635,121.2820
616,19.9999,47.7866, , ,195.2635,121.1712
617,20.0259,263.7862, , ,195.2635,122.1338
618,20.0519,136.0056, , ,195.2635,121.6845
619,20.0779,60.3816, , ,195.2635,121.4484
620,20.1039,63.1536, , ,195.2635,121.5348
621,20.1299,90.2437, , ,195.2635,121.7211
622,20.1559,-18.5694, , ,195.2635,121.3484
623,20.1819,-38.1112, , ,195.2635,121.2951
624,20.2079,-22.5527, , ,195.2635,121.3864
625,20.2339,3.4722, , ,195.2635,121.5208
626,20.2599,134.5977, , ,195.2635,122.0862
627,20.2859,66.5250, , ,195.2635,121.8342
628,20.3119,13.0798, , ,195.2635,121.6419
629,20.3379,-123.1688, , ,195.2635,121.1078
630,20.3639,-23.9992, , ,195.2635,121.5438
631,20.3899,36.0273, , ,195.2635,121.8176
632,20.4159,270.2898, , ,195.2635,122.7664
633,20.4419,346.3960, , ,195.2635,123.0671
634,20.4679,338.4049, , ,195.2635,123.0257
635,20.4939,458.1210, , ,195.2635,123.5024
636,20.5199,572.0322, , ,195.2635,123.9539
637,20.5459,557.8369, , ,195.2635,123.8877
638,20.5719,480.8718, , ,195.2635,123.5678
639,20.5979,402.5267, , ,195.2635,123.2415
640,20.6239,400.6091, , ,195.2635,123.2248
641,20.6499,228.1010, , ,195.2635,122.5139
642,20.6759,110.8183, , ,195.2635,122.0253
643,20.7019,61.7857, , ,195.2635,121.8152
644,20.7279,24.6871, , ,195.2635,121.6539
645,20.7539,5.1462, , ,195.2635,121.5645
646,20.7799,16.5639, , ,195.2635,121.6024
647,20.8059,-77.9641, , ,195.2635,121.2041
648,20.8319,20.7134, , ,195.2635,121.6014
649,20.8579,-21.0589, , ,195.2635,121.4205
650,20.8839,61.1781, , ,195.2635,121.6879
651,20.9099,159.1131, , ,195.2635,122.0191
652,20.9359,362.6467, , ,195.2635,122.7802
653,20.9619,570.2340, , ,195.2635,123.5530
654,20.9879,682.2036, , ,195.2635,123.9358
655,21.0139,921.7884, , ,195.2635,124.8297
656,21.0399,1055.3450, , ,195.2635,125.2948
657,21.0659,1097.8970, , ,195.2635,125.3959
658,21.0919,947.0676, , ,195.2635,124.7240
659,21.1179,628.6179, , ,195.2635,123.3710
660,21.1439,387.7810, , ,195.2635,122.3206
661,21.1699,275.6698, , ,195.2635,121.7908
662,21.1959,274.1640, , ,195.2635,121.7139
663,21.2219,124.0322, , ,195.2635,121.0245
664,21.2479,-8.9592, , ,195.2635,120.4023
665,21.2739,-24.8452, , ,195.2635,120.2647
666,21.2999,-75.2396, , ,195.2635,119.9833
667,21.3259,-4.5369, , ,195.2635,120.2059
668,21.3519,82.6106, , ,195.2635,120.5287
669,21.3779,117.9680, , ,195.2635,120.6361
670,21.4039,65.9513, , ,195.2635,120.3811
671,21.4299,150.2079, , ,195.2635,120.6915
672,21.4559,138.3687, , ,195.2635,120.6033
673,21.4819,130.8570, , ,195.2635,120.5329
674,21.5079,282.1845, , ,195.2635,121.1201
675,21.5339,390.7604, , ,195.2635,121.5286
676,21.5599,461.5422, , ,195.2635,121.7807
677,21.5859,376.8614, , ,195.2635,121.3936
678,21.6119,336.3703, , ,195.2635,121.1878
679,21.6379,239.0804, , ,195.2635,120.7466
680,21.6639,206.2478, , ,195.2635,120.5714
681,21.6899,-25.6875, , ,195.2635,119.5663
682,21.7159,-18.2065, , ,195.2635,119.5580
683,21.7419,45.3827, , ,195.2635,119.7843
684,21.7679,-30.8071, , ,195.2635,119.4263
685,21.7939,33.1191, , ,195.2635,119.6542
686,21.8199,-16.8324, , ,195.2635,119.4048
687,21.8459,12.3903, , ,195.2635,119.4866
688,21.8719,33.1014, , ,195.2635,119.5328
689,21.8979,33.2729, , ,195.2635,119.4931
690,21.9239,10.1052, , ,195.2635,119.3557
691,21.9499,62.4111, , ,195.2635,119.5341
692,21.9759,164.4662, , ,195.2635,119.9200
693,22.0019,167.4799, , ,195.2635,119.8922
694,22.0279,85.0575, , ,195.2635,119.5076
695,22.0539,1.4481, , ,195.2635,119.1167
696,22.0799,109.0926, , ,195.2635,119.5272
697,22.1059,13.2536, , ,195.2635,119.0851
698,22.1319,-14.1475, , ,195.2635,118.9293
699,22.1579,132.9196, , ,195.2635,119.5056
700,22.1839,17.8662, , ,195.2635,118.9826
701,22.2099,49.6384, , ,195.2635,119.0755
702,22.2359,-59.5356, , ,195.2635,118.5754
703,22.2619,14.2209, , ,195.2635,118.8454
704,22.2879,-7.8242, , ,195.2635,118.7699
705,22.3139,112.3531, , ,195.2635,119.2920
706,22.3399,-94.2847, , ,195.2635,118.4401
707,22.3659,76.9234, , ,195.2635,119.1779
708,22.3919,159.4914, , ,195.2635,119.5410
709,22.4179,330.3189, , ,195.2635,120.2705
710,22.4439,399.2552, , ,195.2635,120.5738
711,22.4699,689.0263, , ,195.2635,121.7864
712,22.4959,543.6430, , ,195.2635,121.2050
713,22.5219,559.6239, , ,195.2635,121.2878
714,22.5479,502.0671, , ,195.2635,121.0673
715,22.5739,392.8503, , ,195.2635,120.6324
716,22.5999,224.6630, , ,195.2635,119.9504
717,22.6259,251.4210, , ,195.2635,120.0790
718,22.6519,84.2803, , ,195.2635,119.3983
719,22.6779,93.4419, , ,195.2635,119.4538
720,22.7039,153.2540, , ,195.2635,119.7211
721,22.7299,-61.6387, , ,195.2635,118.8375
722,22.7559,-46.2688, , ,195.2635,118.8718
723,22.7819,-57.1386, , ,195.2635,118.7957
724,22.8079,-110.1672, , ,195.2635,118.5418
725,22.8339,-30.1629, , ,195.2635,118.8484
726,22.8599,7.6209, , ,195.2635,118.9769
727,22.8859,18.9811, , ,195.2635,118.9943
728,22.9119,71.5168, , ,195.2635,119.1846
729,22.9379,30.4750, , ,195.2635,118.9819
730,22.9639,-67.5464, , ,195.2635,118.5388
731,22.9899,96.3154, , ,195.2635,119.1977
732,23.0159,115.7121, , ,195.2635,119.2488
733,23.0419,133.8604, , ,195.2635,119.2946
734,23.0679,-6.8507, , ,195.2635,118.6729
735,23.0939,-63.5456, , ,195.2635,118.4033
736,23.1199,-28.2545, , ,195.2635,118.5218
737,23.1459,-186.6696, , ,195.2635,117.8209
738,23.1719,-101.1831, , ,195.2635,118.1526
739,23.1979,48.5566, , ,195.2635,118.7542
740,23.2239,150.4563, , ,195.2635,119.1629
741,23.2499,65.7105, , ,195.2635,118.7871
742,23.2759,36.4869, , ,195.2635,118.6444
743,23.3019,207.7874, , ,195.2635,119.3445
744,23.3279,425.4091, , ,195.2635,120.2334
745,23.3539,441.0341, , ,195.2635,120.2790
746,23.3799,502.2625, , ,195.2635,120.5139
747,23.4059,714.2635, , ,195.2635,121.3710
748,23.4319,939.5409, , ,195.2635,122.2765
749,23.4579,884.3952, , ,195.2635,121.9989
750,23.4839,659.9927, , ,195.2635,121.0234
751,23.5099,589.8025, , ,195.2635,120.6806
752,23.5359,483.2643, , ,195.2635,120.1857
753,23.5619,310.3367, , ,195.2635,119.4111
754,23.5879,196.5558, , ,195.2635,118.8804
755,23.6139,152.8657, , ,195.2635,118.6432
756,23.6399,63.0816, , ,195.2635,118.2106
757,23.6659,29.4103, , ,195.2635,118.0144
758,23.6919,22.9070, , ,195.2635,117.9332
759,23.7179,-31.6640, , ,195.2635,117.6478
760,23.7439,19.6912, , ,195.2635,117.8121
761,23.7699,-59.8565, , ,195.2635,117.4201
762,23.7959,-138.5075, , ,195.2635,117.0306
763,23.8219,-81.1828, , ,195.2635,117.2212
764,23.8479,-4.0080, , ,195.2635,117.4961
765,23.8739,81.4856, , ,195.2635,117.8056
766,23.8999,-40.3554, , ,195.2635,117.2333
767,23.9259,-36.2112, , ,195.2635,117.1988
768,23.9519,-7.0726, , ,195.2635,117.2710
769,23.9779,-76.5877, , ,195.2635,116.9220
770,24.0039,-27.2291, , ,195.2635,117.0807
771,24.0299,-50.9102, , ,195.2635,116.9272
772,24.0559,-14.1970, , ,195.2635,117.0319
773,24.0819,33.7874, , ,195.2635,117.1846
774,24.1079,-20.4815, , ,195.2635,116.9006
775,24.1339,69.8083, , ,195.2635,117.2340
776,24.1599,77.9862, , ,195.2635,117.2167
777,24.1859,83.1550, , ,195.2635,117.1866
778,24.2119,27.8315, , ,195.2635,116.8981
779,24.2379,-39.7245, , ,195.2635,116.5564
780,24.2639,-39.6723, , ,195.2635,116.5041
781,24.2899,45.4369, , ,195.2635,116.8165
782,24.3159,81.7718, , ,195.2635,116.9197
783,24.3419,9.6387, , ,195.2635,116.5584
784,24.3679,-58.8046, , ,195.2635,116.2119
785,24.3939,-46.1369, , ,195.2635,116.2807
786,24.4199,136.1410, , ,195.2635,117.0761
787,24.4459,-78.6880, , ,195.2635,116.1693
788,24.4719,62.4782, , ,195.2635,116.7896
789,24.4979,146.3733, , ,195.2635,117.1625
790,24.5239,-11.9468, , ,195.2635,116.4992
791,24.5499,-26.6413, , ,195.2635,116.4504
792,24.5759,50.7776, , ,195.2635,116.7966
793,24.6019,22.6607, , ,195.2635,116.6904
794,24.6279,-11.6709, , ,195.2635,116.5485
795,24.6539,-42.2544, , ,195.2635,116.4225
796,24.6799,79.7750, , ,195.2635,116.9506
797,24.7059,86.3632, , ,195.2635,116.9840
798,24.7319,127.2174, , ,195.2635,117.1637
799,24.7579,254.0250, , ,195.2635,117.7088
800,24.7839,328.9986, , ,195.2635,118.0320
801,24.8099,326.1981, , ,195.2635,118.0253
802,24.8359,51.3622, , ,195.2635,116.8604
803,24.8619,-2.3638, , ,195.2635,116.6356
804,24.8879,102.7438, , ,195.2635,117.0905
805,24.9139,81.2736, , ,195.2635,117.0040
806,24.9399,-67.9146, , ,195.2635,116.3700
807,24.9659,7.4816, , ,195.2635,116.6987
808,24.9919,-190.1550, , ,195.2635,115.8541
809,25.0179,-79.6958, , ,195.2635,116.3351
810,25.0439,-122.1187, , ,195.2635,116.1579
811,25.0699,82.1147, , ,195.2635,117.0389
812,25.0959,39.1251, , ,195.2635,116.8342
813,25.1219,89.8653, , ,195.2635,117.0303
814,25.1479,74.8527, , ,195.2635,116.9452
815,25.1739,-58.0470, , ,195.2635,116.3546
816,25.1999,214.5834, , ,195.2635,117.4995
817,25.2259,136.2079, , ,195.2635,117.1447
818,25.2519,137.3796, , ,195.2635,117.1288
819,25.2779,-108.4355, , ,195.2635,116.0537
820,25.3039,-20.1400, , ,195.2635,116.4125
821,25.3299,107.7688, , ,195.2635,116.8779
822,25.3559,-94.5793, , ,195.2635,115.9256
823,25.3819,47.3542, , ,195.2635,116.4532
824,25.4079,-17.1973, , ,195.2635,116.0925
825,25.4339,-164.5861, , ,195.2635,115.3722
826,25.4599,-183.1390, , ,195.2635,115.2079
827,25.4859,-153.1811, , ,195.2635,115.2540
828,25.5119,-145.7683, , ,195.2635,115.2023
829,25.5379,101.5700, , ,195.2635,116.1877
830,25.5639,50.2568, , ,195.2635,115.9139
831,25.5899,95.9540, , ,195.2635,116.0582
832,25.6159,146.5100, , ,195.2635,116.2232
833,25.6419,112.5803, , ,195.2635,116.0245
834,25.6679,82.0314, , ,195.2635,115.8401
835,25.6939,80.7150, , ,195.2635,115.7816
836,25.7199,68.2385, , ,195.2635,115.6749
837,25.7459,52.1322, , ,195.2635,115.5524
838,25.7719,33.2809, , ,195.2635,115.4179
839,25.7979,-103.6789, , ,195.2635,114.8897
840,25.8239,-60.2846, , ,195.2635,115.1450
841,25.8499,26.9547, , ,195.2635,115.5896
842,25.8759,37.4494, , ,195.2635,115.7013
843,25.9019,-17.4652, , ,195.2635,115.5301
844,25.9279,72.0661, , ,195.2635,115.9830
845,25.9539,63.6897, , ,195.2635,116.0130
846,25.9799,94.3693, , ,195.2635,116.2112
847,26.0059,2.5686, , ,195.2635,115.8817
848,26.0319,-96.3653, , ,195.2635,115.4858
849,26.0579,-64.7558, , ,195.2635,115.6543
850,26.0839,-29.7369, , ,195.2635,115.8372
851,26.1099,9.6076, , ,195.2635,116.0385
852,26.1359,-12.4428, , ,195.2635,115.9751
853,26.1619,-98.2871, , ,195.2635,115.6361
854,26.1879,-75.2646, , ,195.2635,115.7673
855,26.2139,17.7720, , ,195.2635,116.2000
856,26.2399,-4.7289, , ,195.2635,116.1347
857,26.2659,-12.6212, , ,195.2635,116.1246
858,26.2919,96.5447, , ,195.2635,116.6176
859,26.3179,69.6986, , ,195.2635,116.5262
860,26.3439,8.1683, , ,195.2635,116.2858
861,26.3699,46.5603, , ,195.2635,116.4746
862,26.3959,169.2010, , ,195.2635,117.0236
863,26.4219,193.8153, , ,195.2635,117.1525
864,26.4479,47.1972, , ,195.2635,116.5489
865,26.4739,21.4297, , ,195.2635,116.4621
866,26.4999,-0.9538, , ,195.2635,116.3899
867,26.5259,-8.8706, , ,195.2635,116.3797
868,26.5519,-30.2616, , ,195.2635,116.3117
869,26.5779,2.4079, , ,195.2635,116.4759
870,26.6039,-19.9204, , ,195.2635,116.4039
871,26.6299,-65.4088, , ,195.2635,116.2322
872,26.6559,-50.5266, , ,195.2635,116.3201
873,26.6819,65.1714, , ,195.2635,116.8401
874,26.7079,4.5346, , ,195.2635,116.6042
875,26.7339,-74.3034, , ,195.2635,116.2723
876,26.7599,87.7387, , ,195.2635,116.9737
877,26.7859,26.5746, , ,195.2635,116.7186
878,26.8119,57.1816, , ,195.2635,116.8563
879,26.8379,67.8622, , ,195.2635,116.9087
880,26.8639,94.5858, , ,195.2635,117.0296
881,26.8899,178.0320, , ,195.2635,117.3922
882,26.9159,122.3616, , ,195.2635,117.1615
883,26.9419,268.2483, , ,195.2635,117.7890
884,26.9679,36.8395, , ,195.2635,116.8092
885,26.9939,36.9823, , ,195.2635,116.8165
886,27.0199,44.4327, , ,195.2635,116.8550
887,27.0459,-27.1087, , ,195.2635,116.5552
888,27.0719,-104.5151, , ,195.2635,116.2294
889,27.0979,72.5667, , ,195.2635,116.9953
890,27.1239,-45.0885, , ,195.2635,116.4981
891,27.1499,23.4113, , ,195.2635,116.7984
892,27.1759,-100.7110, , ,195.2635,116.2725
893,27.2019,23.8518, , ,195.2635,116.7470
894,27.2279,198.9470, , ,195.2635,117.4349
895,27.2539,135.7964, , ,195.2635,117.1059
896,27.2799,194.8436, , ,195.2635,117.2981
897,27.3059,36.4918, , ,195.2635,116.5611
898,27.3319,-67.9134, , ,195.2635,116.0521
899,27.3579,137.7525, , ,195.2635,116.8749
900,27.3839,55.3303, , ,195.2635,116.4617
901,27.4099,40.8344, , ,195.2635,116.3393
902,27.4359,-127.3970, , ,195.2635,115.5746
903,27.4619,-75.3904, , ,195.2635,115.7600
904,27.4879,-64.2540, , ,195.2635,115.7688
905,27.5139,-107.4565, , ,195.2635,115.5426
906,27.5399,-124.8934, , ,195.2635,115.4277
907,27.5659,-60.0578, , ,195.2635,115.6688
908,27.5919,-191.9575, , ,195.2635,115.0577
909,27.6179,19.5243, , ,195.2635,115.9338
910,27.6439,55.9579, , ,195.2635,116.0515
911,27.6699,-16.0478, , ,195.2635,115.6847
912,27.6959,31.2826, , ,195.2635,115.8330
913,27.7219,-78.3580, , ,195.2635,115.3024
914,27.7479,-56.3111, , ,195.2635,115.3416
915,27.7739,36.2708, , ,195.2635,115.6861
916,27.7999,-43.0630, , ,195.2635,115.2863
917,27.8259,145.9873, , ,195.2635,116.0473
918,27.8519,80.0195, , ,195.2635,115.7066
919,27.8779,114.8769, , ,195.2635,115.8010
920,27.9039,-58.6510, , ,195.2635,114.9928
921,27.9299,-17.1936, , ,195.2635,115.1165
922,27.9559,281.4967, , ,195.2635,116.3507
923,27.9819,267.1225, , ,195.2635,116.2331
924,28.0079,564.2258, , ,195.2635,117.4488
925,28.0339,565.1667, , ,195.2635,117.3975
926,28.0599,450.5622, , ,195.2635,116.8527
927,28.0859,302.8228, , ,195.2635,116.1629
928,28.1119,354.4426, , ,195.2635,116.3290
929,28.1379,314.6747, , ,195.2635,116.0604
930,28.1639,191.4578, , ,195.2635,115.4302
931,28.1899,177.9983, , ,195.2635,115.2736
932,28.2159,70.9344, , ,195.2635,114.7095
933,28.2419,113.9354, , ,195.2635,114.7981
934,28.2679,-25.6958, , ,195.2635,114.0890
935,28.2939,-91.4699, , ,195.2635,113.7008
936,28.3199,-107.9673, , ,195.2635,113.5284
937,28.3459,19.7767, , ,195.2635,113.9902
938,28.3719,107.8191, , ,195.2635,114.3466
939,28.3979,99.3831, , ,195.2635,114.2806
940,28.4239,140.2233, , ,195.2635,114.4300
941,28.4499,199.5494, , ,195.2635,114.6599
942,28.4759,160.0355, , ,195.2635,114.4583
943,28.5019,55.3182, , ,195.2635,113.9707
944,28.5279,-39.8713, , ,195.2635,113.5230
945,28.5539,41.9163, , ,195.2635,113.8533
946,28.5799,1.8153, , ,195.2635,113.6478
947,28.6059,-13.9736, , ,195.2635,113.6008
948,28.6319,15.9353, , ,195.2635,113.7548
949,28.6579,15.1608, , ,195.2635,113.7739
950,28.6839,45.9321, , ,195.2635,113.9315
951,28.7099,-9.3724, , ,195.2635,113.7110
952,28.7359,-28.9438, , ,195.2635,113.6474
953,28.7619,-62.7783, , ,195.2635,113.5209
954,28.7879,-8.8538, , ,195.2635,113.7806
955,28.8139,64.2278, , ,195.2635,114.1237
956,28.8399,7.8018, , ,195.2635,113.8362
957,28.8659,-78.6156, , ,195.2635,113.4159
958,28.8919,-74.4150, , ,195.2635,113.3942
959,28.9179,-82.1235, , ,195.2635,113.3200
960,28.9439,-102.6499, , ,195.2635,113.1892
961,28.9699,-53.2715, , ,195.2635,113.3669
962,28.9959,9.6123, , ,195.2635,113.6038
963,29.0219,48.1205, , ,195.2635,113.7332
964,29.0479,1.0191, , ,195.2635,113.4858
965,29.0739,-48.1793, , ,195.2635,113.2619
966,29.0999,-8.1246, , ,195.2635,113.4318
967,29.1259,57.5688, , ,195.2635,113.7141
968,29.1519,92.2945, , ,195.2635,113.8599
969,29.1779,192.0894, , ,195.2635,114.2905
970,29.2039,132.9588, , ,195.2635,114.0247
971,29.2299,-19.5676, , ,195.2635,113.3470
972,29.2559,28.1328, , ,195.2635,113.5504
973,29.2819,-31.3932, , ,195.2635,113.2811
974,29.3079,-25.2143, , ,195.2635,113.2657
975,29.3339,111.5514, , ,195.2635,113.8254
976,29.3599,1.1576, , ,195.2635,113.2968
977,29.3859,-98.4558, , ,195.2635,112.8135
978,29.4119,-11.2350, , ,195.2635,113.1567
979,29.4379,-5.4417, , ,195.2635,113.1396
980,29.4639,43.7763, , ,195.2635,113.3142
981,29.4899,157.7927, , ,195.2635,113.7737
982,29.5159,270.8649, , ,195.2635,114.2273
983,29.5419,336.3447, , ,195.2635,114.4099
984,29.5679,399.4594, , ,195.2635,114.5819
985,29.5939,298.6132, , ,195.2635,114.0370
986,29.6199,221.5087, , ,195.2635,113.5941
987,29.6459,158.6201, , ,195.2635,113.2122
988,29.6719,125.6227, , ,195.2635,112.9615
989,29.6979,72.4887, , ,195.2635,112.6207
990,29.7239,64.9655, , ,195.2635,112.4819
991,29.7499,93.2422, , ,195.2635,112.5022
992,29.7759,17.7062, , ,195.2635,112.0602
993,29.8019,112.2278, , ,195.2635,112.3756
994,29.8279,-140.3270, , ,195.2635,111.1396
995,29.8539,-88.5196, , ,195.2635,111.2659
996,29.8799,65.7253, , ,195.2635,111.8509
997,29.9059,23.8866, , ,195.2635,111.5574
998,29.9319,-23.9972, , ,195.2635,111.2360
999,29.9579,-92.3532, , ,195.2635,110.8213
1000,29.9839,-19.5242, , ,195.2635,111.0427
1001,30.0099,90.0848, , ,195.2635,111.4813
1002,30.0359,43.1122, , ,195.2635,111.2165
1003,30.0619,51.7219, , ,195.2635,111.2013
1004,30.0879,79.8204, , ,195.2635,111.2736
1005,30.1139,-24.3044, , ,195.2635,110.7506
1006,30.1399,-175.8384, , ,195.2635,110.0098
1007,30.1659,-62.0111, , ,195.2635,110.4717
1008,30.1919,-57.8899, , ,195.2635,110.4360
1009,30.2179,75.8301, , ,195.2635,110.9857
1010,30.2439,11.3218, , ,195.2635,110.6365
1011,30.2699,7.1476, , ,195.2635,110.5593
1012,30.2959,-40.3361, , ,195.2635,110.2860
1013,30.3219,-57.2269, , ,195.2635,110.1509
1014,30.3479,-5.2483, , ,195.2635,110.3282
1015,30.3739,-48.8616, , ,195.2635,110.0718
1016,30.3999,64.6896, , ,195.2635,110.5281
1017,30.4259,61.2205, , ,195.2635,110.4541
1018,30.4519,74.2252, , ,195.2635,110.4546
1019,30.4779,-160.8156, , ,195.2635,109.2895
1020,30.5039,1.6619, , ,195.2635,109.9348
1021,30.5299,38.9399, , ,195.2635,110.0088
1022,30.5559,126.9707, , ,195.2635,110.3131
1023,30.5819,183.0603, , ,195.2635,110.4720
1024,30.6079,18.1063, , ,195.2635,109.6271
1025,30.6339,139.2680, , ,195.2635,110.0830
1026,30.6599,118.9690, , ,195.2635,109.8953
1027,30.6859,88.8531, , ,195.2635,109.6625
1028,30.7119,-98.8826, , ,195.2635,108.7066
1029,30.7379,64.9166, , ,195.2635,109.3614
1030,30.7639,203.2518, , ,195.2635,109.8966
1031,30.7899,115.1936, , ,195.2635,109.3992
1032,30.8159,80.8255, , ,195.2635,109.1459
1033,30.8419,-4.9575, , ,195.2635,108.6556
1034,30.8679,10.5536, , ,195.2635,108.6304
1035,30.8939,19.2163, , ,195.2635,108.5736
1036,30.9199,20.6597, , ,195.2635,108.4835
1037,30.9459,-69.3735, , ,195.2635,108.0191
1038,30.9719,55.8712, , ,195.2635,108.5489
1039,30.9979,97.4665, , ,195.2635,108.6921
1040,31.0239,15.7497, , ,195.2635,108.2670
1041,31.0499,11.1214, , ,195.2635,108.1971
1042,31.0759,69.3797, , ,195.2635,108.4176
1043,31.1019,17.1403, , ,195.2635,108.1279
1044,31.1279,82.2999, , ,195.2635,108.3803
1045,31.1539,59.2304, , ,195.2635,108.2254
1046,31.1799,-8.5996, , ,195.2635,107.8629
1047,31.2059,39.1920, , ,195.2635,108.0356
1048,31.2319,19.5169, , ,195.2635,107.8959
1049,31.2579,51.8498, , ,195.2635,107.9970
1050,31.2839,124.7953, , ,195.2635,108.2857
1051,31.3099,157.8434, , ,195.2635,108.3898
1052,31.3359,126.4496, , ,195.2635,108.1963
1053,31.3619,52.9273, , ,195.2635,107.8074
1054,31.3879,50.5800, , ,195.2635,107.7478
1055,31.4139,18.3213, , ,195.2635,107.5076
1056,31.4399,-45.1655, , ,195.2635,107.1212
1057,31.4659,-26.1896, , ,195.2635,107.1190
1058,31.4919,-21.7621, , ,195.2635,107.0489
1059,31.5179,-118.1957, , ,195.2635,106.5063
1060,31.5439,-30.0637, , ,195.2635,106.8282
1061,31.5699,52.3186, , ,195.2635,107.1224
1062,31.5959,-29.3742, , ,195.2635,106.6493
1063,31.6219,-25.6215, , ,195.2635,106.5757
1064,31.6479,16.6970, , ,195.2635,106.7387
1065,31.6739,-5.3949, , ,195.2635,106.5997
1066,31.6999,-69.6792, , ,195.2635,106.2622
1067,31.7259,-33.8759, , ,195.2635,106.3950
1068,31.7519,-54.4192, , ,195.2635,106.2629
1069,31.7779,-7.5896, , ,195.2635,106.4475
1070,31.8039,56.8785, , ,195.2635,106.7145
1071,31.8299,67.0108, , ,195.2635,106.7266
1072,31.8559,62.8712, , ,195.2635,106.6718
1073,31.8819,51.9360, , ,195.2635,106.5851
1074,31.9079,69.5825, , ,195.2635,106.6324
1075,31.9339,38.3234, , ,195.2635,106.4503
1076,31.9599,60.8436, , ,195.2635,106.5205
1077,31.9859,75.8817, , ,195.2635,106.5556
1078,32.0119,-41.6500, , ,195.2635,105.9671
1079,32.0379,12.8919, , ,195.2635,106.1885
1080,32.0639,-21.6494, , ,195.2635,105.9901
1081,32.0899,28.8308, , ,195.2635,106.1924
1082,32.1159,-25.0004, , ,195.2635,105.8285
1083,32.1419,57.8822, , ,195.2635,106.1095
1084,32.1679,83.5846, , ,195.2635,106.1206
1085,32.1939,57.9742, , ,195.2635,105.8898
1086,32.2199,22.8423, , ,195.2635,105.6133
1087,32.2459,-81.5567, , ,195.2635,105.0069
1088,32.2719,17.8185, , ,195.2635,105.3683
1089,32.2979,-12.5150, , ,195.2635,105.1134
1090,32.3239,5.6144, , ,195.2635,105.0886
1091,32.3499,-23.6763, , ,195.2635,104.9221
1092,32.3759,56.8453, , ,195.2635,105.2783
1093,32.4019,-62.7906, , ,195.2635,104.6815
1094,32.4279,-44.1229, , ,195.2635,104.7435
1095,32.4539,62.4712, , ,195.2635,105.2242
1096,32.4799,110.6632, , ,195.2635,105.4261
1097,32.5059,80.9841, , ,195.2635,105.2583
1098,32.5319,4.4791, , ,195.2635,104.8673
1099,32.5579,-3.1353, , ,195.2635,104.8039
1100,32.5839,127.7444, , ,195.2635,105.3482
1101,32.6099,147.6054, , ,195.2635,105.3642
1102,32.6359,178.9819, , ,195.2635,105.4347
1103,32.6619,135.7222, , ,195.2635,105.1509
1104,32.6879,160.2326, , ,195.2635,105.1890
1105,32.7139,160.6905, , ,195.2635,105.1128
1106,32.7399,202.8233, , ,195.2635,105.2346
1107,32.7659,196.0951, , ,195.2635,105.1242
1108,32.7919,111.0448, , ,195.2635,104.6401
1109,32.8179,62.2807, , ,195.2635,104.3278
1110,32.8439,110.1338, , ,195.2635,104.4779
1111,32.8699,-51.0870, , ,195.2635,103.6239
1112,32.8959,13.3654, , ,195.2635,103.8550
1113,32.9219,168.9606, , ,195.2635,104.5225
1114,32.9479,-64.4757, , ,195.2635,103.3200
1115,32.9739,46.1227, , ,195.2635,103.7744
1116,32.9999,53.2958, , ,195.2635,103.7294
1117,33.0259,113.8612, , ,195.2635,103.9416
1118,33.0519,231.6364, , ,195.2635,104.3758
1119,33.0779,258.0008, , ,195.2635,104.3711
1120,33.1039,139.2892, , ,195.2635,103.6691
1121,33.1299,18.8409, , ,195.2635,102.9539
1122,33.1559,-45.7824, , ,195.2635,102.5063
1123,33.1819,74.3776, , ,195.2635,102.9581
1124,33.2079,137.4253, , ,195.2635,103.1314
1125,33.2339,104.6812, , ,195.2635,102.8398
1126,33.2599,-107.0301, , ,195.2635,101.6709
1127,33.2859,-57.6984, , ,195.2635,101.8947
1128,33.3119,-24.9204, , ,195.2635,102.0369
1129,33.3379,97.6639, , ,195.2635,102.6174
1130,33.3639,7.3482, , ,195.2635,102.1579
1131,33.3899,15.5060, , ,195.2635,102.1793
1132,33.4159,142.4909, , ,195.2635,102.7805
1133,33.4419,103.5402, , ,195.2635,102.5724
1134,33.4679,51.3127, , ,195.2635,102.2990
1135,33.4939,-69.1763, , ,195.2635,101.6898
1136,33.5199,-45.1078, , ,195.2635,101.7661
1137,33.5459,38.5819, , ,195.2635,102.1346
1138,33.5719,55.5325, , ,195.2635,102.1757
1139,33.5979,3.0162, , ,195.2635,101.8764
1140,33.6239,28.0355, , ,195.2635,101.9571
1141,33.6499,111.9897, , ,195.2635,102.3262
1142,33.6759,70.0056, , ,195.2635,102.0790
1143,33.7019,65.3417, , ,195.2635,102.0142
1144,33.7279,85.8319, , ,195.2635,102.0727
1145,33.7539,85.9749, , ,195.2635,102.0315
1146,33.7799,72.3955, , ,195.2635,101.9229
1147,33.8059,64.5961, , ,195.2635,101.8427
1148,33.8319,12.7784, , ,195.2635,101.5458
1149,33.8579,-41.7940, , ,195.2635,101.2345
1150,33.8839,-9.0537, , ,195.2635,101.3539
1151,33.9099,65.7328, , ,195.2635,101.6801
1152,33.9359,37.9236, , ,195.2635,101.5011
1153,33.9619,74.9160, , ,195.2635,101.6411
1154,33.9879,139.7954, , ,195.2635,101.8660
1155,34.0139,182.3261, , ,195.2635,101.9809
1156,34.0399,153.2384, , ,195.2635,101.7443
1157,34.0659,78.2388, , ,195.2635,101.2808
1158,34.0919,117.3644, , ,195.2635,101.3795
1159,34.1179,73.8639, , ,195.2635,101.0703
1160,34.1439,20.9301, , ,195.2635,100.7132
1161,34.1699,15.0148, , ,195.2635,100.5889
1162,34.1959,5.1330, , ,195.2635,100.4447
1163,34.2219,31.8901, , ,195.2635,100.4916
1164,34.2479,-89.7477, , ,195.2635,99.7977
1165,34.2739,-133.7329, , ,195.2635,99.4900
1166,34.2999,-5.1006, , ,195.2635,100.0478
1167,34.3259,-22.2156, , ,195.2635,99.8755
1168,34.3519,-21.7545, , ,195.2635,99.7910
1169,34.3779,21.9695, , ,195.2635,99.9232
1170,34.4039,-11.8432, , ,195.2635,99.6669
1171,34.4299,29.9147, , ,195.2635,99.7894
1172,34.4559,-49.2820, , ,195.2635,99.3772
1173,34.4819,-21.6339, , ,195.2635,99.5017
1174,34.5079,14.0634, , ,195.2635,99.6664
1175,34.5339,-52.9134, , ,195.2635,99.3153
1176,34.5599,-77.3464, , ,195.2635,99.1777
1177,34.5859,-96.3103, , ,195.2635,99.0674
1178,34.6119,-59.6731, , ,195.2635,99.2376
1179,34.6379,0.1142, , ,195.2635,99.5239
1180,34.6639,-2.2965, , ,195.2635,99.4973
1181,34.6899,37.3562, , ,195.2635,99.6718
1182,34.7159,-12.0871, , ,195.2635,99.3989
1183,34.7419,-175.6793, , ,195.2635,98.5477
1184,34.7679,-110.6590, , ,195.2635,98.8523
1185,34.7939,-45.7509, , ,195.2635,99.1555
1186,34.8199,-44.6034, , ,195.2635,99.1366
1187,34.8459,-57.7534, , ,195.2635,99.0456
1188,34.8719,-79.9495, , ,195.2635,98.9087
1189,34.8979,68.9032, , ,195.2635,99.6338
1190,34.9239,31.8648, , ,195.2635,99.3707
1191,34.9499,0.3685, , ,195.2635,99.1348
1192,34.9759,22.4524, , ,195.2635,99.1688
1193,35.0019,83.3120, , ,195.2635,99.3981
1194,35.0279,37.5073, , ,195.2635,99.0901
1195,35.0539,35.4547, , ,195.2635,99.0023
1196,35.0799,-46.1554, , ,195.2635,98.5115
1197,35.1059,-48.4544, , ,195.2635,98.4219
1198,35.1319,5.7888, , ,195.2635,98.6194
1199,35.1579,21.8757, , ,195.2635,98.6210
1200,35.1839,101.8290, , ,195.2635,98.9458
1201,35.2099,59.1006, , ,195.2635,98.6497
1202,35.2359,74.3398, , ,195.2635,98.6470
1203,35.2619,14.1400, , ,195.2635,98.2611
1204,35.2879,27.2558, , ,195.2635,98.2476
1205,35.3139,-7.7418, , ,195.2635,97.9888
1206,35.3399,49.2142, , ,195.2635,98.1987
1207,35.3659,-28.6957, , ,195.2635,97.7205
1208,35.3919,-13.2662, , ,195.2635,97.7273
1209,35.4179,20.8564, , ,195.2635,97.8296
1210,35.4439,77.5673, , ,195.2635,98.0471
1211,35.4699,102.4442, , ,195.2635,98.1020
1212,35.4959,-33.3576, , ,195.2635,97.3349
1213,35.5219,86.3142, , ,195.2635,97.8757
1214,35.5479,31.8213, , ,195.2635,97.5246
1215,35.5739,114.7310, , ,195.2635,97.8767
1216,35.5999,109.4803, , ,195.2635,97.7777
1217,35.6259,64.1945, , ,195.2635,97.4735
1218,35.6519,149.0059, , ,195.2635,97.8355
1219,35.6779,169.1040, , ,195.2635,97.8661
1220,35.7039,157.7580, , ,195.2635,97.7359
1221,35.7299,82.2800, , ,195.2635,97.2765
1222,35.7559,33.8531, , ,195.2635,96.9546
1223,35.7819,-23.7008, , ,195.2635,96.5843
1224,35.8079,-18.9669, , ,195.2635,96.5357
1225,35.8339,-61.4203, , ,195.2635,96.2423
1226,35.8599,58.9088, , ,195.2635,96.8700
1227,35.8859,133.0994, , ,195.2635,97.2568
1228,35.9119,-0.0933, , ,195.2635,96.5742
1229,35.9379,131.5371, , ,195.2635,97.2579
1230,35.9639,58.2548, , ,195.2635,96.8850
1231,35.9899,-25.7964, , ,195.2635,96.4548
1232,36.0159,17.2705, , ,195.2635,96.6824
1233,36.0419,-54.3981, , ,195.2635,96.3157
1234,36.0679,22.6454, , ,195.2635,96.7194
1235,36.0939,68.4593, , ,195.2635,96.8929
1236,36.1199,-56.2662, , ,195.2635,96.1836
1237,36.1459,3.7286, , ,195.2635,96.4316
1238,36.1719,-45.2851, , ,195.2635,96.1136
1239,36.1979,-13.9680, , ,195.2635,96.2129
1240,36.2239,40.4196, , ,195.2635,96.4318
1241,36.2499,2.4953, , ,195.2635,96.1714
1242,36.2759,25.4221, , ,195.2635,96.2270
1243,36.3019,64.2405, , ,195.2635,96.3651
1244,36.3279,71.8117, , ,195.2635,96.3410
1245,36.3539,96.9268, , ,195.2635,96.4079
1246,36.3799,61.3308, , ,195.2635,96.1596
1247,36.4059,15.5503, , ,195.2635,95.8575
1248,36.4319,67.5221, , ,195.2635,96.0646
1249,36.4579,82.7846, , ,195.2635,96.0804
1250,36.4839,-58.3277, , ,195.2635,95.2792
1251,36.5099,-34.4303, , ,195.2635,95.3404
1252,36.5359,-3.1775, , ,195.2635,95.4402
1253,36.5619,68.1186, , ,195.2635,95.7491
1254,36.5879,38.6000, , ,195.2635,95.5309
1255,36.6139,9.6300, , ,195.2635,95.3151
1256,36.6399,89.7065, , ,195.2635,95.6704
1257,36.6659,136.2652, , ,195.2635,95.8496
1258,36.6919,20.3687, , ,195.2635,95.1790
1259,36.7179,-46.1824, , ,195.2635,94.7642
1260,36.7439,15.1403, , ,195.2635,95.0230
1261,36.7699,8.1452, , ,195.2635,94.9218
1262,36.7959,8.3822, , ,195.2635,94.7942
1263,36.8219,55.6001, , ,195.2635,94.9142
1264,36.8479,73.2498, , ,195.2635,94.8784
1265,36.8739,120.1620, , ,195.2635,94.9968
1266,36.8999,96.8552, , ,195.2635,94.7451
1267,36.9259,15.6703, , ,195.2635,94.1860
1268,36.9519,56.0170, , ,195.2635,94.2704
1269,36.9779,15.6019, , ,195.2635,93.9257
1270,37.0039,-44.7770, , ,195.2635,93.4731
1271,37.0299,-25.7630, , ,195.2635,93.6519
1272,37.0559,52.1320, , ,195.2635,94.1436
1273,37.0819,63.3202, , ,195.2635,94.2797
1274,37.1079,15.2325, , ,195.2635,94.1011
1275,37.1339,48.7377, , ,195.2635,94.3555
1276,37.1599,128.2196, , ,195.2635,94.8519
1277,37.1859,64.6595, , ,195.2635,94.5927
1278,37.2119,36.3039, , ,195.2635,94.5191
1279,37.2379,-3.8730, , ,195.2635,94.3829
1280,37.2639,-49.2416, , ,195.2635,94.1357
1281,37.2899,-1.0028, , ,195.2635,94.3851
1282,37.3159,89.2119, , ,195.2635,94.8554
1283,37.3419,107.3435, , ,195.2635,94.9445
1284,37.3679,62.0217, , ,195.2635,94.6991
1285,37.3939,51.6794, , ,195.2635,94.6380
1286,37.4199,-2.7002, , ,195.2635,94.3438
1287,37.4459,97.5177, , ,195.2635,94.8670
1288,37.4719,148.8590, , ,195.2635,95.1307
1289,37.4979,-17.7319, , ,195.2635,94.1818
1290,37.5239,43.5763, , ,195.2635,94.4376
1291,37.5499,44.6600, , ,195.2635,94.3742
1292,37.5759,-79.3819, , ,195.2635,93.6451
1293,37.6019,3.4998, , ,195.2635,94.0171
1294,37.6279,119.4738, , ,195.2635,94.5629
1295,37.6539,53.7554, , ,195.2635,94.1455
1296,37.6799,-34.5071, , ,195.2635,93.6058
1297,37.7059,103.2364, , ,195.2635,94.2695
1298,37.7319,107.4110, , ,195.2635,94.2224
1299,37.7579,-20.8173, , ,195.2635,93.4696
1300,37.7839,3.6235, , ,195.2635,93.5305
1301,37.8099,104.0901, , ,195.2635,93.9966
1302,37.8359,94.7110, , ,195.2635,93.8772
1303,37.8619,-29.4157, , ,195.2635,93.1437
1304,37.8879,-2.1845, , ,195.2635,93.2198
1305,37.9139,101.7182, , ,195.2635,93.7058
1306,37.9399,30.0414, , ,195.2635,93.2526
1307,37.9659,-55.8258, , ,195.2635,92.7096
1308,37.9919,-80.7637, , ,195.2635,92.4933
1309,38.0179,-66.1805, , ,195.2635,92.4905
1310,38.0439,126.3703, , ,195.2635,93.4448
1311,38.0699,59.7698, , ,195.2635,93.0065
1312,38.0959,46.5337, , ,195.2635,92.8540
1313,38.1219,-16.4234, , ,195.2635,92.4327
1314,38.1479,-47.4318, , ,195.2635,92.1829
1315,38.1739,-22.6907, , ,195.2635,92.2351
1316,38.1999,47.7340, , ,195.2635,92.6550
1317,38.2259,51.5776, , ,195.2635,92.7147
1318,38.2519,103.2039, , ,195.2635,93.0316
1319,38.2779,40.8642, , ,195.2635,92.7349
1320,38.3039,-5.4363, , ,195.2635,92.5239
1321,38.3299,65.8870, , ,195.2635,92.9474
1322,38.3559,41.2961, , ,195.2635,92.8539
1323,38.3819,139.1874, , ,195.2635,93.4182
1324,38.4079,24.7188, , ,195.2635,92.8424
1325,38.4339,-26.7909, , ,195.2635,92.5517
1326,38.4599,19.2457, , ,195.2635,92.7872
1327,38.4859,-90.6021, , ,195.2635,92.1804
1328,38.5119,-30.8759, , ,195.2635,92.4909
1329,38.5379,12.0234, , ,195.2635,92.7096
1330,38.5639,154.5233, , ,195.2635,93.4622
1331,38.5899,135.4748, , ,195.2635,93.3475
1332,38.6159,31.2479, , ,195.2635,92.7747
1333,38.6419,-7.2284, , ,195.2635,92.5542
1334,38.6679,29.1512, , ,195.2635,92.7376
1335,38.6939,83.6683, , ,195.2635,93.0182
1336,38.7199,5.1606, , ,195.2635,92.5824
1337,38.7459,5.8094, , ,195.2635,92.5730
1338,38.7719,17.9869, , ,195.2635,92.6258
1339,38.7979,-39.9162, , ,195.2635,92.2998
1340,38.8239,-28.5132, , ,195.2635,92.3486
1341,38.8499,30.8996, , ,195.2635,92.6568
1342,38.8759,86.4353, , ,195.2635,92.9432
1343,38.9019,40.2870, , ,195.2635,92.6298
1344,38.9279,-1.1543, , ,195.2635,92.3409
1345,38.9539,-60.7772, , ,195.2635,91.9523
1346,38.9799,-4.1161, , ,195.2635,92.1948
1347,39.0059,8.5763, , ,195.2635,92.1986
1348,39.0319,-30.9928, , ,195.2635,91.9185
1349,39.0579,-98.0760, , ,195.2635,91.4873
1350,39.0839,-63.6379, , ,195.2635,91.6098
1351,39.1099,29.2174, , ,195.2635,92.0501
1352,39.1359,45.7668, , ,195.2635,92.0881
1353,39.1619,79.6729, , ,195.2635,92.2202
1354,39.1879,-1.9510, , ,195.2635,91.7245
1355,39.2139,32.5636, , ,195.2635,91.8604
1356,39.2399,60.8457, , ,195.2635,91.9623
1357,39.2659,-22.7496, , ,195.2635,91.4545
1358,39.2919,-52.3446, , ,195.2635,91.2402
1359,39.3179,-13.9122, , ,195.2635,91.3983
1360,39.3439,-3.3270, , ,195.2635,91.4039
1361,39.3699,31.5203, , ,195.2635,91.6131
1362,39.3959,43.0106, , ,195.2635,91.6945
1363,39.4219,11.7951, , ,195.2635,91.5429
1364,39.4479,26.3987, , ,195.2635,91.6414
1365,39.4739,56.7205, , ,195.2635,91.8254
1366,39.4999,144.7000, , ,195.2635,92.3218
1367,39.5259,141.4479, , ,195.2635,92.3228
1368,39.5519,63.4871, , ,195.2635,91.9183
1369,39.5779,-7.5318, , ,195.2635,91.5500
1370,39.6039,-58.3380, , ,195.2635,91.2909
1371,39.6299,-5.3971, , ,195.2635,91.5991
1372,39.6559,22.8128, , ,195.2635,91.7717
1373,39.6819,52.9847, , ,195.2635,91.9546
1374,39.7079,16.8472, , ,195.2635,91.7766
1375,39.7339,-14.5720, , ,195.2635,91.6241
1376,39.7599,47.0850, , ,195.2635,91.9786
1377,39.7859,117.6366, , ,195.2635,92.3799
1378,39.8119,96.4737, , ,195.2635,92.2839
1379,39.8379,16.0166, , ,195.2635,91.8657
1380,39.8639,59.5414, , ,195.2635,92.1209
1381,39.8899,-39.0004, , ,195.2635,91.6033
1382,39.9159,-56.8744, , ,195.2635,91.5244
1383,39.9419,47.9373, , ,195.2635,92.1139
1384,39.9679,1.7181, , ,195.2635,91.8627
