No.,Pos. [°2Th.],Iobs [cts],Icalc [cts],Iback [cts],CT [s],ESD
1,4.0099,0.0000, , ,195.2635,260.4758
2,4.0359,-2489.5480, , ,195.2635,254.4579
3,4.0619,-3465.9700, , ,195.2635,251.3228
4,4.0879,-4249.1530, , ,195.2635,248.5372
5,4.1139,-4588.4040, , ,195.2635,246.6217
6,4.1399,-4724.7830, , ,195.2635,245.1054
7,4.1659,-4101.9490, , ,195.2635,245.1331
8,4.1919,-3236.4860, , ,195.2635,245.6552
9,4.2179,-1788.7320, , ,195.2635,247.3560
10,4.2439,346.2287, , ,195.2635,250.4210
11,4.2699,3115.0020, , ,195.2635,254.6468
12,4.2959,7080.5430, , ,195.2635,261.1055
13,4.3219,11952.4700, , ,195.2635,269.0977
14,4.3479,18893.8800, , ,195.2635,280.5718
15,4.3739,28131.0900, , ,195.2635,295.5051
16,4.3999,40642.7900, , ,195.2635,314.9612
17,4.4259,57715.7700, , ,195.2635,340.0574
18,4.4519,80826.3600, , ,195.2635,371.6385
19,4.4779,109643.0000, , ,195.2635,407.7958
20,4.5039,130357.8000, , ,195.2635,431.7148
21,4.5299,123384.6000, , ,195.2635,422.8121
22,4.5559,88928.6300, , ,195.2635,379.0510
23,4.5819,52520.3500, , ,195.2635,326.5531
24,4.6079,29028.3600, , ,195.2635,287.2464
25,4.6339,16807.6700, , ,195.2635,263.9230
26,4.6599,10678.0900, , ,195.2635,250.7814
27,4.6859,7293.3760, , ,195.2635,242.6358
28,4.7119,4619.0040, , ,195.2635,235.7187
29,4.7379,3289.5580, , ,195.2635,231.4610
30,4.7639,2158.4360, , ,195.2635,227.5596
31,4.7899,1286.9670, , ,195.2635,224.1701
32,4.8159,724.5276, , ,195.2635,221.4275
33,4.8419,433.3912, , ,195.2635,219.2700
34,4.8679,345.5283, , ,195.2635,217.5587
35,4.8939,311.2474, , ,195.2635,215.9580
36,4.9199,126.7170, , ,195.2635,213.9945
37,4.9459,30.8521, , ,195.2635,212.2219
38,4.9719,482.4988, , ,195.2635,211.6576
39,4.9979,840.9738, , ,195.2635,210.8711
40,5.0239,638.0071, , ,195.2635,208.7411
41,5.0499,559.4991, , ,195.2635,206.8902
42,5.0759,666.5481, , ,195.2635,205.4745
43,5.1019,376.5051, , ,195.2635,203.0737
44,5.1279,155.1339, , ,195.2635,200.8152
45,5.1539,87.8093, , ,195.2635,198.9186
46,5.1799,-21.5062, , ,195.2635,196.8972
47,5.2059,-150.0792, , ,195.2635,195.4162
48,5.2319,-235.2607, , ,195.2635,194.0357
49,5.2579,-200.7670, , ,195.2635,192.9557
50,5.2839,-269.3813, , ,195.2635,191.6007
51,5.3099,-300.3262, , ,195.2635,190.3351
52,5.3359,-201.4131, , ,195.2635,189.4041
53,5.3619,-155.3703, , ,195.2635,188.3282
54,5.3879,-115.3685, , ,195.2635,187.2300
55,5.4139,-68.4319, , ,195.2635,186.1439
56,5.4399,46.3918, , ,195.2635,185.8899
57,5.4659,26.0759, , ,195.2635,185.2712
58,5.4919,-77.6901, , ,195.2635,184.4243
59,5.5179,-93.1958, , ,195.2635,183.8137
60,5.5439,-106.4734, , ,195.2635,183.2072
61,5.5699,145.6696, , ,195.2635,183.3239
62,5.5959,94.9671, , ,195.2635,182.6133
63,5.6219,-54.6306, , ,195.2635,181.6279
64,5.6479,-38.4947, , ,195.2635,181.0953
65,5.6739,-108.2200, , ,195.2635,180.7245
66,5.6999,19.4155, , ,195.2635,180.8992
67,5.7259,208.1563, , ,195.2635,181.2424
68,5.7519,4.9809, , ,195.2635,180.5026
69,5.7779,-43.8959, , ,195.2635,180.1885
70,5.8039,83.3485, , ,195.2635,180.3626
71,5.8299,-35.7928, , ,195.2635,179.8530
72,5.8559,-167.6418, , ,195.2635,179.3064
73,5.8819,21.2338, , ,195.2635,179.6531
74,5.9079,51.9181, , ,195.2635,179.9937
75,5.9339,-51.1084, , ,195.2635,179.9625
76,5.9599,-118.2807, , ,195.2635,180.0310
77,5.9859,-275.1957, , ,195.2635,179.8501
78,6.0119,-26.2523, , ,195.2635,180.7949
79,6.0379,188.1149, , ,195.2635,181.6397
80,6.0639,211.9222, , ,195.2635,181.9577
81,6.0899,324.6419, , ,195.2635,182.5189
82,6.1159,632.7584, , ,195.2635,183.6112
83,6.1419,1234.8540, , ,195.2635,185.4245
84,6.1679,1904.5640, , ,195.2635,187.4008
85,6.1939,3046.1500, , ,195.2635,190.5984
86,6.2199,4314.0070, , ,195.2635,194.0688
87,6.2459,6421.6240, , ,195.2635,199.5931
88,6.2719,8831.2770, , ,195.2635,205.7041
89,6.2979,13461.4400, , ,195.2635,216.8212
90,6.3239,19714.5000, , ,195.2635,230.9363
91,6.3499,27672.1900, , ,195.2635,247.7022
92,6.3759,37668.4300, , ,195.2635,267.1925
93,6.4019,43524.1500, , ,195.2635,278.0050
94,6.4279,39876.2600, , ,195.2635,271.4372
95,6.4539,28244.7200, , ,195.2635,249.1703
96,6.4799,17176.2700, , ,195.2635,225.9571
97,6.5059,11081.1800, , ,195.2635,212.1338
98,6.5319,8032.4670, , ,195.2635,204.9177
99,6.5579,6619.5900, , ,195.2635,201.5381
100,6.5839,6141.8720, , ,195.2635,200.4473
101,6.6099,5288.1720, , ,195.2635,198.3340
102,6.6359,5041.1300, , ,195.2635,197.7378
103,6.6619,4476.9590, , ,195.2635,196.3339
104,6.6879,4348.8790, , ,195.2635,196.0353
105,6.7139,3996.5720, , ,195.2635,195.1626
106,6.7399,3549.1530, , ,195.2635,194.0411
107,6.7659,3508.2100, , ,195.2635,193.9638
108,6.7919,3400.4770, , ,195.2635,193.7141
109,6.8179,3109.4640, , ,195.2635,192.9898
110,6.8439,2893.7670, , ,195.2635,192.3865
111,6.8699,2594.8700, , ,195.2635,191.5642
112,6.8959,2740.7900, , ,195.2635,191.9010
113,6.9219,2533.3270, , ,195.2635,191.3158
114,6.9479,2435.5350, , ,195.2635,191.0160
115,6.9739,2129.6420, , ,195.2635,190.1695
116,6.9999,2050.0520, , ,195.2635,189.9159
117,7.0259,2209.9590, , ,195.2635,190.2923
118,7.0519,1733.4130, , ,195.2635,188.9916
119,7.0779,1984.8630, , ,195.2635,189.5400
120,7.1039,1454.6010, , ,195.2635,188.0195
121,7.1299,1818.8080, , ,195.2635,188.8695
122,7.1559,1595.9290, , ,195.2635,188.1621
123,7.1819,1511.1480, , ,195.2635,187.8201
124,7.2079,1379.2050, , ,195.2635,187.3515
125,7.2339,1111.5250, , ,195.2635,186.5183
126,7.2599,1051.6650, , ,195.2635,186.2402
127,7.2859,968.8831, , ,195.2635,185.8999
128,7.3119,1000.0070, , ,195.2635,185.8657
129,7.3379,1005.3010, , ,195.2635,185.7620
130,7.3639,944.6454, , ,195.2635,185.4806
131,7.3899,799.6623, , ,195.2635,184.9709
132,7.4159,658.7156, , ,195.2635,184.4707
133,7.4419,715.0548, , ,195.2635,184.5046
134,7.4679,786.5629, , ,195.2635,184.5796
135,7.4939,633.1566, , ,195.2635,184.0445
136,7.5199,784.0487, , ,195.2635,184.3351
137,7.5459,933.4934, , ,195.2635,184.5482
138,7.5719,1086.2500, , ,195.2635,184.7699
139,7.5979,1579.9730, , ,195.2635,185.9107
140,7.6239,1998.8820, , ,195.2635,186.8444
141,7.6499,2564.3840, , ,195.2635,188.1634
142,7.6759,3742.4600, , ,195.2635,191.0829
143,7.7019,5500.8690, , ,195.2635,195.4487
144,7.7279,8184.2430, , ,195.2635,202.0216
145,7.7539,12245.5500, , ,195.2635,211.6675
146,7.7799,17933.2500, , ,195.2635,224.4853
147,7.8059,26216.3500, , ,195.2635,242.0321
148,7.8319,34243.7200, , ,195.2635,257.8947
149,7.8579,37270.9400, , ,195.2635,263.5142
150,7.8839,32020.2300, , ,195.2635,253.1636
151,7.9099,21379.3400, , ,195.2635,230.9842
152,7.9359,11952.7300, , ,195.2635,209.3558
153,7.9619,6164.3580, , ,195.2635,194.7929
154,7.9879,3416.6590, , ,195.2635,187.3483
155,8.0139,2242.9120, , ,195.2635,183.8556
156,8.0399,1463.4350, , ,195.2635,181.3854
157,8.0659,876.8216, , ,195.2635,179.4194
158,8.0919,612.8016, , ,195.2635,178.3383
159,8.1179,401.0092, , ,195.2635,177.3978
160,8.1439,162.0845, , ,195.2635,176.3755
161,8.1699,174.9624, , ,195.2635,176.0638
162,8.1959,106.3154, , ,195.2635,175.5194
163,8.2219,33.2884, , ,195.2635,174.9608
164,8.2479,-88.7576, , ,195.2635,174.2142
165,8.2739,-110.5705, , ,195.2635,173.7530
166,8.2999,-62.7853, , ,195.2635,173.4913
167,8.3259,-35.2102, , ,195.2635,173.1708
168,8.3519,10.0543, , ,195.2635,172.9009
169,8.3779,-137.8736, , ,195.2635,172.0701
170,8.4039,-113.3301, , ,195.2635,171.7382
171,8.4299,-4.9668, , ,195.2635,171.6499
172,8.4559,87.1845, , ,195.2635,171.5144
173,8.4819,-15.6607, , ,195.2635,170.8739
174,8.5079,-87.2384, , ,195.2635,170.3228
175,8.5339,-60.5295, , ,195.2635,170.0592
176,8.5599,-50.4687, , ,195.2635,169.7461
177,8.5859,-73.0077, , ,195.2635,169.3363
178,8.6119,-100.5427, , ,195.2635,168.9106
179,8.6379,-191.1934, , ,195.2635,168.2965
180,8.6639,-153.3539, , ,195.2635,168.0628
181,8.6899,98.2543, , ,195.2635,168.4644
182,8.7159,90.2787, , ,195.2635,168.2854
183,8.7419,59.5456, , ,195.2635,168.0384
184,8.7679,31.6484, , ,195.2635,167.7996
185,8.7939,198.9665, , ,195.2635,168.1420
186,8.8199,231.1559, , ,195.2635,168.0821
187,8.8459,594.0955, , ,195.2635,169.0036
188,8.8719,1015.4500, , ,195.2635,170.0919
189,8.8979,1187.2100, , ,195.2635,170.4427
190,8.9239,2011.9540, , ,195.2635,172.6938
191,8.9499,3147.0450, , ,195.2635,175.7246
192,8.9759,5172.0050, , ,195.2635,181.1766
193,9.0019,7947.5950, , ,195.2635,188.4713
194,9.0279,12240.4100, , ,195.2635,199.3368
195,9.0539,16907.4300, , ,195.2635,210.5304
196,9.0799,19745.1200, , ,195.2635,216.9830
197,9.1059,17349.2200, , ,195.2635,211.2028
198,9.1319,11516.6300, , ,195.2635,196.7103
199,9.1579,6049.9050, , ,195.2635,182.0689
200,9.1839,3306.9940, , ,195.2635,174.1467
201,9.2099,1880.0310, , ,195.2635,169.7675
202,9.2359,1372.2800, , ,195.2635,168.0302
203,9.2619,901.9451, , ,195.2635,166.3872
204,9.2879,571.5858, , ,195.2635,165.1521
205,9.3139,295.9922, , ,195.2635,164.0747
206,9.3399,227.9363, , ,195.2635,163.6256
207,9.3659,203.7187, , ,195.2635,163.3096
208,9.3919,258.4783, , ,195.2635,163.2350
209,9.4179,121.4766, , ,195.2635,162.4892
210,9.4439,-40.9883, , ,195.2635,161.6613
211,9.4699,17.4394, , ,195.2635,161.5144
212,9.4959,81.3832, , ,195.2635,161.3844
213,9.5219,58.1765, , ,195.2635,160.9839
214,9.5479,-62.6734, , ,195.2635,160.2781
215,9.5739,-210.9892, , ,195.2635,159.4830
216,9.5999,-81.4605, , ,195.2635,159.5570
217,9.6259,115.6091, , ,195.2635,159.8425
218,9.6519,33.1387, , ,195.2635,159.3174
219,9.6779,34.9737, , ,195.2635,159.0558
220,9.7039,45.3523, , ,195.2635,158.8207
221,9.7299,33.2873, , ,195.2635,158.5145
222,9.7559,54.3745, , ,195.2635,158.3124
223,9.7819,5.9274, , ,195.2635,157.8900
224,9.8079,56.6845, , ,195.2635,157.7812
225,9.8339,-53.8400, , ,195.2635,157.1600
226,9.8599,-91.4486, , ,195.2635,156.7691
227,9.8859,87.2618, , ,195.2635,157.1660
228,9.9119,95.9213, , ,195.2635,157.0213
229,9.9379,-155.2629, , ,195.2635,156.0462
230,9.9639,-98.3160, , ,195.2635,156.0552
231,9.9899,94.2488, , ,195.2635,156.4982
232,10.0159,195.3239, , ,195.2635,156.6482
233,10.0419,250.9285, , ,195.2635,156.6530
234,10.0679,542.8909, , ,195.2635,157.4103
235,10.0939,1095.7420, , ,195.2635,158.9866
236,10.1199,1720.8850, , ,195.2635,160.6917
237,10.1459,2127.1410, , ,195.2635,161.7035
238,10.1719,2144.5080, , ,195.2635,161.5096
239,10.1979,1886.1860, , ,195.2635,160.4586
240,10.2239,1116.7970, , ,195.2635,157.7895
241,10.2499,610.2825, , ,195.2635,155.9197
242,10.2759,546.6085, , ,195.2635,155.4581
243,10.3019,321.9198, , ,195.2635,154.4748
244,10.3279,52.6221, , ,195.2635,153.3399
245,10.3539,24.2265, , ,195.2635,152.9859
246,10.3799,20.5890, , ,195.2635,152.7121
247,10.4059,8.5619, , ,195.2635,152.4103
248,10.4319,87.1344, , ,195.2635,152.4054
249,10.4579,44.4868, , ,195.2635,152.0023
250,10.4839,-155.6916, , ,195.2635,151.0777
251,10.5099,-152.1933, , ,195.2635,150.8241
252,10.5359,-10.0566, , ,195.2635,151.0298
253,10.5619,7.1171, , ,195.2635,150.8215
254,10.5879,49.9611, , ,195.2635,150.8162
255,10.6139,22.9767, , ,195.2635,150.5792
256,10.6399,-136.5695, , ,195.2635,149.9003
257,10.6659,-147.7588, , ,195.2635,149.7146
258,10.6919,-102.3082, , ,195.2635,149.7180
259,10.7179,-125.6310, , ,195.2635,149.4915
260,10.7439,-126.1435, , ,195.2635,149.3410
261,10.7699,-53.4683, , ,195.2635,149.4355
262,10.7959,58.2624, , ,195.2635,149.6605
263,10.8219,77.7021, , ,195.2635,149.5136
264,10.8479,4.6960, , ,195.2635,149.0568
265,10.8739,113.0287, , ,195.2635,149.2074
266,10.8999,236.3056, , ,195.2635,149.4080
267,10.9259,227.9447, , ,195.2635,149.1677
268,10.9519,241.8899, , ,195.2635,149.0019
269,10.9779,664.1604, , ,195.2635,150.2013
270,11.0039,1356.1380, , ,195.2635,152.2794
271,11.0299,2152.4540, , ,195.2635,154.6672
272,11.0559,3818.9810, , ,195.2635,159.7657
273,11.0819,6199.4380, , ,195.2635,166.8597
274,11.1079,9027.4770, , ,195.2635,174.9480
275,11.1339,10579.6000, , ,195.2635,179.1523
276,11.1599,10113.8600, , ,195.2635,177.6694
277,11.1859,7552.7350, , ,195.2635,170.1232
278,11.2119,4332.2190, , ,195.2635,160.1811
279,11.2379,1980.9120, , ,195.2635,152.4575
280,11.2639,974.5176, , ,195.2635,148.9077
281,11.2899,604.7982, , ,195.2635,147.3549
282,11.3159,210.6544, , ,195.2635,145.7017
283,11.3419,242.2031, , ,195.2635,145.4998
284,11.3679,33.7928, , ,195.2635,144.4696
285,11.3939,-119.8232, , ,195.2635,143.6228
286,11.4199,84.7052, , ,195.2635,144.0198
287,11.4459,26.3540, , ,195.2635,143.5027
288,11.4719,-43.7890, , ,195.2635,142.9425
289,11.4979,9.4807, , ,195.2635,142.8127
290,11.5239,58.1503, , ,195.2635,142.6976
291,11.5499,-88.7130, , ,195.2635,141.8949
292,11.5759,38.9911, , ,195.2635,142.0575
293,11.6019,144.1855, , ,195.2635,142.1406
294,11.6279,14.5999, , ,195.2635,141.3960
295,11.6539,13.4531, , ,195.2635,141.1032
296,11.6799,47.9229, , ,195.2635,140.9363
297,11.7059,-135.4234, , ,195.2635,139.9933
298,11.7319,85.8946, , ,195.2635,140.4916
299,11.7579,59.1851, , ,195.2635,140.2397
300,11.7839,-132.1360, , ,195.2635,139.3982
301,11.8099,65.2023, , ,195.2635,139.9471
302,11.8359,-72.1864, , ,195.2635,139.2976
303,11.8619,151.7825, , ,195.2635,139.9421
304,11.8879,91.6061, , ,195.2635,139.5694
305,11.9139,18.6412, , ,195.2635,139.1497
306,11.9399,-95.6507, , ,195.2635,138.5798
307,11.9659,-44.1635, , ,195.2635,138.6068
308,11.9919,77.6112, , ,195.2635,138.8574
309,12.0179,105.4598, , ,195.2635,138.7696
310,12.0439,-10.5688, , ,195.2635,138.1621
311,12.0699,-61.3665, , ,195.2635,137.7888
312,12.0959,-165.6161, , ,195.2635,137.2198
313,12.1219,1.5502, , ,195.2635,137.6380
314,12.1479,71.5699, , ,195.2635,137.7026
315,12.1739,63.8118, , ,195.2635,137.4847
316,12.1999,-123.9366, , ,195.2635,136.6092
317,12.2259,17.3455, , ,195.2635,136.9518
318,12.2519,42.4026, , ,195.2635,136.8696
319,12.2779,152.7850, , ,195.2635,137.0989
320,12.3039,146.4303, , ,195.2635,136.9022
321,12.3299,85.0671, , ,195.2635,136.5038
322,12.3559,127.4364, , ,195.2635,136.4848
323,12.3819,43.5892, , ,195.2635,136.0026
324,12.4079,-118.1419, , ,195.2635,135.2310
325,12.4339,-13.2312, , ,195.2635,135.4429
326,12.4599,20.8712, , ,195.2635,135.4998
327,12.4859,146.0236, , ,195.2635,135.8922
328,12.5119,107.4615, , ,195.2635,135.6815
329,12.5379,-9.0053, , ,195.2635,135.1826
330,12.5639,21.1644, , ,195.2635,135.2251
331,12.5899,136.4193, , ,195.2635,135.5818
332,12.6159,24.9007, , ,195.2635,135.1008
333,12.6419,-84.1434, , ,195.2635,134.6273
334,12.6679,-19.6054, , ,195.2635,134.7976
335,12.6939,71.8798, , ,195.2635,135.0765
336,12.7199,0.2046, , ,195.2635,134.7507
337,12.7459,23.0154, , ,195.2635,134.7752
338,12.7719,41.1996, , ,195.2635,134.7825
339,12.7979,-174.3549, , ,195.2635,133.9199
340,12.8239,-78.6379, , ,195.2635,134.2164
341,12.8499,-3.6457, , ,195.2635,134.4351
342,12.8759,-21.0582, , ,195.2635,134.3100
343,12.9019,7.0485, , ,195.2635,134.3542
344,12.9279,2.4466, , ,195.2635,134.1823
345,12.9539,3.9005, , ,195.2635,134.0328
346,12.9799,-55.2419, , ,195.2635,133.6566
347,13.0059,-135.8278, , ,195.2635,133.1989
348,13.0319,-187.9341, , ,195.2635,132.8469
349,13.0579,-94.5975, , ,195.2635,133.0416
350,13.0839,3.2284, , ,195.2635,133.2529
351,13.1099,-62.6874, , ,195.2635,132.8490
352,13.1359,-49.7002, , ,195.2635,132.7415
353,13.1619,46.8550, , ,195.2635,133.0762
354,13.1879,60.2591, , ,195.2635,133.0982
355,13.2139,42.3428, , ,195.2635,133.0024
356,13.2399,4.7855, , ,195.2635,132.8326
357,13.2659,35.4271, , ,195.2635,132.9194
358,13.2919,-6.5131, , ,195.2635,132.7331
359,13.3179,-78.3896, , ,195.2635,132.4335
360,13.3439,67.3799, , ,195.2635,132.9542
361,13.3699,121.2745, , ,195.2635,133.1283
362,13.3959,130.0382, , ,195.2635,133.1328
363,13.4219,228.2800, , ,195.2635,133.4729
364,13.4479,329.1645, , ,195.2635,133.8220
365,13.4739,386.4198, , ,195.2635,134.0075
366,13.4999,576.3229, , ,195.2635,134.6861
367,13.5259,974.6576, , ,195.2635,136.1290
368,13.5519,1876.3120, , ,195.2635,139.3743
369,13.5779,3036.5860, , ,195.2635,143.4500
370,13.6039,4852.6860, , ,195.2635,149.6210
371,13.6299,7408.1440, , ,195.2635,157.8448
372,13.6559,9153.1290, , ,195.2635,163.1963
373,13.6819,9373.8740, , ,195.2635,163.7891
374,13.7079,7483.9770, , ,195.2635,157.8292
375,13.7339,4409.5380, , ,195.2635,147.6777
376,13.7599,2325.8010, , ,195.2635,140.3497
377,13.7859,1084.5970, , ,195.2635,135.7569
378,13.8119,653.6254, , ,195.2635,134.0598
379,13.8379,295.2509, , ,195.2635,132.6150
380,13.8639,66.3869, , ,195.2635,131.5706
381,13.8899,14.5010, , ,195.2635,131.1941
382,13.9159,81.0132, , ,195.2635,131.2682
383,13.9419,52.9065, , ,195.2635,130.9816
384,13.9679,117.1494, , ,195.2635,131.0472
385,13.9939,132.3793, , ,195.2635,130.9257
386,14.0199,57.3623, , ,195.2635,130.4587
387,14.0459,-101.1925, , ,195.2635,129.6683
388,14.0719,-6.6560, , ,195.2635,129.8512
389,14.0979,61.1328, , ,195.2635,129.9214
390,14.1239,36.2270, , ,195.2635,129.6345
391,14.1499,-49.3864, , ,195.2635,129.1121
392,14.1759,-52.1767, , ,195.2635,128.9093
393,14.2019,-52.2135, , ,195.2635,128.7168
394,14.2279,-130.3876, , ,195.2635,128.2197
395,14.2539,-281.6301, , ,195.2635,127.4342
396,14.2799,-114.8872, , ,195.2635,127.8932
397,14.3059,61.7025, , ,195.2635,128.3889
398,14.3319,145.7983, , ,195.2635,128.6430
399,14.3579,89.8233, , ,195.2635,128.3521
400,14.3839,-57.9894, , ,195.2635,127.7015
401,14.4099,200.5682, , ,195.2635,128.6369
402,14.4359,114.0265, , ,195.2635,128.2269
403,14.4619,93.2234, , ,195.2635,128.0725
404,14.4879,175.5007, , ,195.2635,128.3201
405,14.5139,-26.9871, , ,195.2635,127.4551
406,14.5399,122.8722, , ,195.2635,127.9682
407,14.5659,61.1093, , ,195.2635,127.6532
408,14.5919,57.4617, , ,195.2635,127.5653
409,14.6179,10.5752, , ,195.2635,127.3077
410,14.6439,-47.8692, , ,195.2635,127.0040
411,14.6699,-247.5082, , ,195.2635,126.1412
412,14.6959,-9.7160, , ,195.2635,127.0064
413,14.7219,-44.7652, , ,195.2635,126.7943
414,14.7479,79.5476, , ,195.2635,127.2098
415,14.7739,21.7632, , ,195.2635,126.9085
416,14.7999,-0.1097, , ,195.2635,126.7443
417,14.8259,-180.7173, , ,195.2635,125.9513
418,14.8519,-256.3410, , ,195.2635,125.5720
419,14.8779,-75.5175, , ,195.2635,126.2116
420,14.9039,19.4251, , ,195.2635,126.5090
421,14.9299,-3.0739, , ,195.2635,126.3418
422,14.9559,-25.5797, , ,195.2635,126.1744
423,14.9819,-49.5675, , ,195.2635,126.0008
424,15.0079,-43.5348, , ,195.2635,125.9463
425,15.0339,65.5331, , ,195.2635,126.2228
426,15.0599,138.9289, , ,195.2635,126.3577
427,15.0859,-3.8005, , ,195.2635,125.6352
428,15.1119,9.2252, , ,195.2635,125.5304
429,15.1379,152.8305, , ,195.2635,125.9451
430,15.1639,79.7177, , ,195.2635,125.4979
431,15.1899,77.4590, , ,195.2635,125.3321
432,15.2159,59.0858, , ,195.2635,125.1016
433,15.2419,6.1099, , ,195.2635,124.7322
434,15.2679,-134.1783, , ,195.2635,124.2061
435,15.2939,-7.9926, , ,195.2635,124.7504
436,15.3199,-102.8437, , ,195.2635,124.4072
437,15.3459,-133.0487, , ,195.2635,124.3233
438,15.3719,-31.2732, , ,195.2635,124.7694
439,15.3979,-14.8484, , ,195.2635,124.8725
440,15.4239,-98.5306, , ,195.2635,124.5745
441,15.4499,-6.8292, , ,195.2635,124.9793
442,15.4759,72.9235, , ,195.2635,125.3352
443,15.5019,-15.9444, , ,195.2635,124.9673
444,15.5279,-44.3872, , ,195.2635,124.8406
445,15.5539,4.8305, , ,195.2635,125.0247
446,15.5799,-41.1418, , ,195.2635,124.8278
447,15.6059,-4.1371, , ,195.2635,124.9630
448,15.6319,64.3705, , ,195.2635,125.2239
449,15.6579,33.9861, , ,195.2635,125.0897
450,15.6839,6.9449, , ,195.2635,124.9687
451,15.7099,121.4347, , ,195.2635,125.4131
452,15.7359,296.7766, , ,195.2635,126.0974
453,15.7619,464.1422, , ,195.2635,126.7466
454,15.7879,626.8058, , ,195.2635,127.3740
455,15.8139,645.0016, , ,195.2635,127.4328
456,15.8399,515.9583, , ,195.2635,126.9128
457,15.8659,373.8934, , ,195.2635,126.3391
458,15.8919,190.9882, , ,195.2635,125.6003
459,15.9179,-13.8211, , ,195.2635,124.7694
460,15.9439,-47.5851, , ,195.2635,124.6211
461,15.9699,23.8356, , ,195.2635,124.7916
462,15.9959,61.3190, , ,195.2635,124.8260
463,16.0219,95.7639, , ,195.2635,124.8483
464,16.0479,2.2944, , ,195.2635,124.3573
465,16.0739,-28.6026, , ,195.2635,124.1167
466,16.0999,48.7922, , ,195.2635,124.3119
467,16.1259,-17.2588, , ,195.2635,123.9295
468,16.1519,-62.4560, , ,195.2635,123.6302
469,16.1779,-53.8438, , ,195.2635,123.5482
470,16.2039,59.8305, , ,195.2635,124.0289
471,16.2299,105.9262, , ,195.2635,124.2360
472,16.2559,72.1512, , ,195.2635,124.1215
473,16.2819,22.7694, , ,195.2635,123.9439
474,16.3079,120.3677, , ,195.2635,124.3585
475,16.3339,56.0839, , ,195.2635,124.1212
476,16.3599,77.9042, , ,195.2635,124.2306
477,16.3859,84.3794, , ,195.2635,124.2781
478,16.4119,178.0999, , ,195.2635,124.6760
479,16.4379,143.3902, , ,195.2635,124.5581
480,16.4639,134.8275, , ,195.2635,124.5451
481,16.4899,63.4403, , ,195.2635,124.2797
482,16.5159,147.3418, , ,195.2635,124.6382
483,16.5419,94.8481, , ,195.2635,124.4488
484,16.5679,-1.5674, , ,195.2635,124.0824
485,16.5939,34.6875, , ,195.2635,124.2498
486,16.6199,141.9154, , ,195.2635,124.7020
487,16.6459,-91.5683, , ,195.2635,123.7838
488,16.6719,-2.2500, , ,195.2635,124.1154
489,16.6979,-21.7824, , ,195.2635,124.0080
490,16.7239,-23.1435, , ,195.2635,123.9739
491,16.7499,58.2236, , ,195.2635,124.2730
492,16.7759,-22.2173, , ,195.2635,123.9202
493,16.8019,24.6638, , ,195.2635,124.0806
494,16.8279,-168.8386, , ,195.2635,123.2696
495,16.8539,-21.4347, , ,195.2635,123.8373
496,16.8799,9.3706, , ,195.2635,123.9329
497,16.9059,86.1089, , ,195.2635,124.2667
498,16.9319,13.2577, , ,195.2635,123.9979
499,16.9579,4.8226, , ,195.2635,123.9885
500,16.9839,61.8563, , ,195.2635,124.2429
501,17.0099,3.0718, , ,195.2635,124.0308
502,17.0359,60.2921, , ,195.2635,124.2858
503,17.0619,194.4653, , ,195.2635,124.8489
504,17.0879,78.5728, , ,195.2635,124.4084
505,17.1139,180.4655, , ,195.2635,124.8418
506,17.1399,21.2020, , ,195.2635,124.2269
507,17.1659,30.1547, , ,195.2635,124.2875
508,17.1919,134.9925, , ,195.2635,124.7330
509,17.2179,-60.4016, , ,195.2635,123.9719
510,17.2439,-182.8231, , ,195.2635,123.5020
511,17.2699,-93.1153, , ,195.2635,123.8893
512,17.2959,-37.7686, , ,195.2635,124.1371
513,17.3219,-1.5774, , ,195.2635,124.3073
514,17.3479,-12.7726, , ,195.2635,124.2869
515,17.3739,-18.4885, , ,195.2635,124.2353
516,17.3999,113.2178, , ,195.2635,124.7357
517,17.4259,64.9556, , ,195.2635,124.5135
518,17.4519,32.3023, , ,195.2635,124.3538
519,17.4779,66.2438, , ,195.2635,124.4616
520,17.5039,45.6269, , ,195.2635,124.3502
521,17.5299,0.2418, , ,195.2635,124.1389
522,17.5559,-94.1965, , ,195.2635,123.7292
523,17.5819,84.1486, , ,195.2635,124.4192
524,17.6079,27.9107, , ,195.2635,124.1232
525,17.6339,-56.6712, , ,195.2635,123.7120
526,17.6599,-49.9206, , ,195.2635,123.6692
527,17.6859,-95.8441, , ,195.2635,123.4132
528,17.7119,-31.9136, , ,195.2635,123.6019
529,17.7379,-30.1038, , ,195.2635,123.5390
530,17.7639,-75.3464, , ,195.2635,123.2855
531,17.7899,-135.7210, , ,195.2635,122.9700
532,17.8159,35.4149, , ,195.2635,123.5937
533,17.8419,34.3417, , ,195.2635,123.6892
534,17.8679,100.9831, , ,195.2635,124.0577
535,17.8939,71.5346, , ,195.2635,124.0384
536,17.9199,24.3484, , ,195.2635,123.9476
537,17.9459,-32.8288, , ,195.2635,123.8164
538,17.9719,-33.0456, , ,195.2635,123.9151
539,17.9979,-20.3511, , ,195.2635,124.0658
540,18.0239,-28.9154, , ,195.2635,124.1306
541,18.0499,20.3279, , ,195.2635,124.4280
542,18.0759,-2.7123, , ,195.2635,124.3577
543,18.1019,67.6948, , ,195.2635,124.6628
544,18.1279,134.6204, , ,195.2635,124.9531
545,18.1539,29.5508, , ,195.2635,124.5543
546,18.1799,59.0486, , ,195.2635,124.6949
547,18.2059,240.5449, , ,195.2635,125.4427
548,18.2319,400.9097, , ,195.2635,126.1023
549,18.2579,629.3026, , ,195.2635,127.0266
550,18.2839,658.4734, , ,195.2635,127.1632
551,18.3099,485.8114, , ,195.2635,126.5044
552,18.3359,336.5684, , ,195.2635,125.9352
553,18.3619,218.3774, , ,195.2635,125.4872
554,18.3879,153.5574, , ,195.2635,125.2509
555,18.4139,50.6525, , ,195.2635,124.8616
556,18.4399,7.7692, , ,195.2635,124.7121
557,18.4659,98.4485, , ,195.2635,125.0973
558,18.4919,96.6663, , ,195.2635,125.1124
559,18.5179,-19.8653, , ,195.2635,124.6681
560,18.5439,-90.9869, , ,195.2635,124.4879
561,18.5699,-58.5708, , ,195.2635,124.7232
562,18.5959,51.0759, , ,195.2635,125.2667
563,18.6219,70.2860, , ,195.2635,125.4479
564,18.6479,-38.0859, , ,195.2635,125.1200
565,18.6739,-9.4224, , ,195.2635,125.3392
566,18.6999,107.9978, , ,195.2635,125.9109
567,18.7259,224.0557, , ,195.2635,126.4746
568,18.7519,376.6060, , ,195.2635,127.1794
569,18.7779,765.2042, , ,195.2635,128.6748
570,18.8039,1154.6440, , ,195.2635,130.1562
571,18.8299,1401.3400, , ,195.2635,131.0776
572,18.8559,1533.7140, , ,195.2635,131.5588
573,18.8819,1437.7390, , ,195.2635,131.1706
574,18.9079,1068.3910, , ,195.2635,129.7320
575,18.9339,549.5943, , ,195.2635,127.6934
576,18.9599,318.5667, , ,195.2635,126.7619
577,18.9859,182.4352, , ,195.2635,126.2000
578,19.0119,-67.1856, , ,195.2635,125.1831
579,19.0379,8.7915, , ,195.2635,125.4623
580,19.0639,-11.3843, , ,195.2635,125.3580
581,19.0899,-60.4641, , ,195.2635,125.1381
582,19.1159,-4.8905, , ,195.2635,125.3360
583,19.1419,68.6133, , ,195.2635,125.6050
584,19.1679,144.6207, , ,195.2635,125.8834
585,19.1939,-13.3366, , ,195.2635,125.2304
586,19.2199,34.0301, , ,195.2635,125.3955
587,19.2459,-56.8210, , ,195.2635,125.1233
588,19.2719,-123.2208, , ,195.2635,124.9484
589,19.2979,-105.4937, , ,195.2635,125.1100
590,19.3239,-42.6531, , ,195.2635,125.4512
591,19.3499,113.3064, , ,195.2635,126.1612
592,19.3759,77.7853, , ,195.2635,126.1102
593,19.4019,55.4519, , ,195.2635,126.1115
594,19.4279,-9.3431, , ,195.2635,125.9444
595,19.4539,18.8846, , ,195.2635,126.1463
596,19.4799,-53.5275, , ,195.2635,125.9516
597,19.5059,8.9977, , ,195.2635,126.2920
598,19.5319,-24.3806, , ,195.2635,126.2522
599,19.5579,-72.8902, , ,195.2635,126.1525
600,19.5839,-16.8621, , ,195.2635,126.4666
601,19.6099,-1.1176, , ,195.2635,126.6210
602,19.6359,64.5832, , ,195.2635,126.9721
603,19.6619,28.2653, , ,195.2635,126.9210
604,19.6879,-106.2386, , ,195.2635,126.4823
605,19.7139,76.4786, , ,195.2635,127.2715
606,19.7399,-47.1482, , ,195.2635,126.8541
607,19.7659,-73.0561, , ,195.2635,126.8212
608,19.7919,-103.5513, , ,195.2635,126.7701
609,19.8179,-67.3712, , ,195.2635,126.9819
610,19.8439,-177.0435, , ,195.2635,126.6187
611,19.8699,75.8360, , ,195.2635,127.6821
612,19.8959,439.9616, , ,195.2635,129.1681
613,19.9219,199.9756, , ,195.2635,128.3042
614,19.9479,389.6872, , ,195.2635,129.1094
615,19.9739,215.6253, , ,195.2635,128.5019
616,19.9999,286.5831, , ,195.2635,128.8458
617,20.0259,85.6314, , ,195.2635,128.1322
618,20.0519,-206.9434, , ,195.2635,127.0545
619,20.0779,-295.0109, , ,195.2635,126.7767
620,20.1039,-73.5505, , ,195.2635,127.7159
621,20.1299,-133.0721, , ,195.2635,127.5514
622,20.1559,112.8210, , ,195.2635,128.5800
623,20.1819,41.3166, , ,195.2635,128.3558
624,20.2079,-4.5619, , ,195.2635,128.2311
625,20.2339,-40.4334, , ,195.2635,128.1454
626,20.2599,-57.5104, , ,195.2635,128.1329
627,20.2859,-159.5104, , ,195.2635,127.7886
628,20.3119,-33.5301, , ,195.2635,128.3347
629,20.3379,68.2583, , ,195.2635,128.7846
630,20.3639,251.2529, , ,195.2635,129.5468
631,20.3899,473.8199, , ,195.2635,130.4562
632,20.4159,902.5356, , ,195.2635,132.1417
633,20.4419,1113.2580, , ,195.2635,132.9889
634,20.4679,1007.5550, , ,195.2635,132.6432
635,20.4939,900.1794, , ,195.2635,132.2903
636,20.5199,633.2775, , ,195.2635,131.3306
637,20.5459,413.2813, , ,195.2635,130.5435
638,20.5719,330.4510, , ,195.2635,130.2792
639,20.5979,63.9333, , ,195.2635,129.3060
640,20.6239,-56.3652, , ,195.2635,128.8939
641,20.6499,-19.6492, , ,195.2635,129.0629
642,20.6759,-98.5239, , ,195.2635,128.7837
643,20.7019,-96.0627, , ,195.2635,128.8200
644,20.7279,-116.1784, , ,195.2635,128.7687
645,20.7539,-139.5589, , ,195.2635,128.7046
646,20.7799,-53.5948, , ,195.2635,129.0649
647,20.8059,38.8516, , ,195.2635,129.4491
648,20.8319,147.4829, , ,195.2635,129.8945
649,20.8579,249.1191, , ,195.2635,130.3116
650,20.8839,518.4469, , ,195.2635,131.2940
651,20.9099,1061.6860, , ,195.2635,133.3005
652,20.9359,1652.0370, , ,195.2635,135.4512
653,20.9619,2098.8500, , ,195.2635,137.0457
654,20.9879,2244.1840, , ,195.2635,137.5301
655,21.0139,1928.1170, , ,195.2635,136.3309
656,21.0399,1363.7320, , ,195.2635,134.1991
657,21.0659,790.2447, , ,195.2635,131.9984
658,21.0919,320.9446, , ,195.2635,130.1612
659,21.1179,93.9700, , ,195.2635,129.2387
660,21.1439,-9.6033, , ,195.2635,128.7895
661,21.1699,-63.4639, , ,195.2635,128.5322
662,21.1959,10.7226, , ,195.2635,128.7726
663,21.2219,-95.8432, , ,195.2635,128.3101
664,21.2479,-234.2215, , ,195.2635,127.7215
665,21.2739,-112.8004, , ,195.2635,128.1478
666,21.2999,-114.6326, , ,195.2635,128.0925
667,21.3259,4.4566, , ,195.2635,128.5086
668,21.3519,154.0066, , ,195.2635,129.0732
669,21.3779,203.2296, , ,195.2635,129.2479
670,21.4039,302.8697, , ,195.2635,129.6169
671,21.4299,514.2584, , ,195.2635,130.4140
672,21.4559,747.9529, , ,195.2635,131.2913
673,21.4819,776.5421, , ,195.2635,131.3845
674,21.5079,638.8803, , ,195.2635,130.8438
675,21.5339,404.4352, , ,195.2635,129.9290
676,21.5599,94.8052, , ,195.2635,128.7160
677,21.5859,33.0394, , ,195.2635,128.3705
678,21.6119,65.6353, , ,195.2635,128.3921
679,21.6379,63.7926, , ,195.2635,128.2795
680,21.6639,-76.1430, , ,195.2635,127.6269
681,21.6899,44.8218, , ,195.2635,127.9943
682,21.7159,-55.5801, , ,195.2635,127.4954
683,21.7419,-12.3853, , ,195.2635,127.5587
684,21.7679,198.4443, , ,195.2635,128.2770
685,21.7939,32.6034, , ,195.2635,127.5230
686,21.8199,132.9808, , ,195.2635,127.8101
687,21.8459,129.0176, , ,195.2635,127.6887
688,21.8719,-46.5524, , ,195.2635,126.8928
689,21.8979,93.6969, , ,195.2635,127.3380
690,21.9239,-25.7483, , ,195.2635,126.7615
691,21.9499,-132.0745, , ,195.2635,126.2343
692,21.9759,-52.8193, , ,195.2635,126.4409
693,22.0019,126.4820, , ,195.2635,127.0415
694,22.0279,24.0336, , ,195.2635,126.5308
695,22.0539,-132.5346, , ,195.2635,125.9266
696,22.0799,41.1549, , ,195.2635,126.6304
697,22.1059,27.4205, , ,195.2635,126.5922
698,22.1319,221.3452, , ,195.2635,127.3718
699,22.1579,99.9106, , ,195.2635,126.9102
700,22.1839,58.9537, , ,195.2635,126.7647
701,22.2099,208.5616, , ,195.2635,127.3693
702,22.2359,53.1102, , ,195.2635,126.7736
703,22.2619,224.3837, , ,195.2635,127.4633
704,22.2879,92.9118, , ,195.2635,126.9625
705,22.3139,-135.2636, , ,195.2635,126.0768
706,22.3399,304.4918, , ,195.2635,127.8247
707,22.3659,461.8665, , ,195.2635,128.4546
708,22.3919,634.0174, , ,195.2635,129.1387
709,22.4179,997.3463, , ,195.2635,130.5534
710,22.4439,1249.7520, , ,195.2635,131.5319
711,22.4699,1010.1600, , ,195.2635,130.6335
712,22.4959,839.6520, , ,195.2635,129.9948
713,22.5219,646.6517, , ,195.2635,129.1897
714,22.5479,264.5799, , ,195.2635,127.6411
715,22.5739,20.5052, , ,195.2635,126.6195
716,22.5999,106.6007, , ,195.2635,126.8973
717,22.6259,16.6623, , ,195.2635,126.4805
718,22.6519,-42.3557, , ,195.2635,126.1850
719,22.6779,25.8251, , ,195.2635,126.3929
720,22.7039,27.6385, , ,195.2635,126.3381
721,22.7299,44.1846, , ,195.2635,126.3415
722,22.7559,-119.1922, , ,195.2635,125.6686
723,22.7819,110.8026, , ,195.2635,126.5558
724,22.8079,-30.5925, , ,195.2635,125.9712
725,22.8339,124.9612, , ,195.2635,126.5625
726,22.8599,123.2313, , ,195.2635,126.5311
727,22.8859,79.0984, , ,195.2635,126.3320
728,22.9119,144.6175, , ,195.2635,126.5664
729,22.9379,237.6135, , ,195.2635,126.9088
730,22.9639,222.7267, , ,195.2635,126.8256
731,22.9899,155.9016, , ,195.2635,126.5373
732,23.0159,217.9482, , ,195.2635,126.7577
733,23.0419,35.1661, , ,195.2635,126.0099
734,23.0679,-19.3246, , ,195.2635,125.7688
735,23.0939,-52.4117, , ,195.2635,125.6124
736,23.1199,-62.0342, , ,195.2635,125.5493
737,23.1459,-24.2725, , ,195.2635,125.6749
738,23.1719,-16.3632, , ,195.2635,125.6816
739,23.1979,30.8244, , ,195.2635,125.8444
740,23.2239,46.5330, , ,195.2635,125.7969
741,23.2499,183.1962, , ,195.2635,126.2294
742,23.2759,277.5672, , ,195.2635,126.4933
743,23.3019,596.4595, , ,195.2635,127.6393
744,23.3279,1070.2520, , ,195.2635,129.3751
745,23.3539,1599.5850, , ,195.2635,131.2996
746,23.3799,1635.0140, , ,195.2635,131.3292
747,23.4059,1460.4790, , ,195.2635,130.5571
748,23.4319,1221.0540, , ,195.2635,129.5301
749,23.4579,831.8730, , ,195.2635,127.9109
750,23.4839,427.9724, , ,195.2635,126.2127
751,23.5099,192.3646, , ,195.2635,125.1653
752,23.5359,184.6300, , ,195.2635,125.0239
753,23.5619,118.3418, , ,195.2635,124.6475
754,23.5879,0.0296, , ,195.2635,124.0606
755,23.6139,-72.5108, , ,195.2635,123.6561
756,23.6399,-42.1566, , ,195.2635,123.6669
757,23.6659,0.5840, , ,195.2635,123.7279
758,23.6919,59.2943, , ,195.2635,123.9187
759,23.7179,95.6397, , ,195.2635,124.0192
760,23.7439,122.0430, , ,195.2635,124.0794
761,23.7699,148.2831, , ,195.2635,124.1391
762,23.7959,104.5379, , ,195.2635,123.9166
763,23.8219,150.7261, , ,195.2635,124.0567
764,23.8479,119.2112, , ,195.2635,123.8834
765,23.8739,34.7954, , ,195.2635,123.4959
766,23.8999,58.1912, , ,195.2635,123.5443
767,23.9259,118.4189, , ,195.2635,123.7416
768,23.9519,17.4776, , ,195.2635,123.2866
769,23.9779,53.3417, , ,195.2635,123.3856
770,24.0039,-13.2871, , ,195.2635,123.0688
771,24.0299,-114.0030, , ,195.2635,122.6123
772,24.0559,-83.6122, , ,195.2635,122.6895
773,24.0819,-91.5309, , ,195.2635,122.6106
774,24.1079,-66.9903, , ,195.2635,122.6640
775,24.1339,55.0007, , ,195.2635,123.1138
776,24.1599,82.4060, , ,195.2635,123.1583
777,24.1859,-75.4175, , ,195.2635,122.4487
778,24.2119,-5.1830, , ,195.2635,122.6682
779,24.2379,-3.7768, , ,195.2635,122.6069
780,24.2639,-5.6559, , ,195.2635,122.5321
781,24.2899,-9.1524, , ,195.2635,122.4507
782,24.3159,55.1276, , ,195.2635,122.6459
783,24.3419,31.0649, , ,195.2635,122.4806
784,24.3679,-90.7032, , ,195.2635,121.9151
785,24.3939,26.7575, , ,195.2635,122.4458
786,24.4199,37.1316, , ,195.2635,122.5381
787,24.4459,-41.8374, , ,195.2635,122.2654
788,24.4719,90.4632, , ,195.2635,122.8550
789,24.4979,71.7066, , ,195.2635,122.8284
790,24.5239,21.1372, , ,195.2635,122.6722
791,24.5499,-43.9259, , ,195.2635,122.4566
792,24.5759,-104.2964, , ,195.2635,122.2599
793,24.6019,12.2184, , ,195.2635,122.7853
794,24.6279,94.9083, , ,195.2635,123.1486
795,24.6539,137.0138, , ,195.2635,123.3465
796,24.6799,181.3667, , ,195.2635,123.5531
797,24.7059,300.2156, , ,195.2635,124.0600
798,24.7319,349.8185, , ,195.2635,124.2866
799,24.7579,68.8892, , ,195.2635,123.1783
800,24.7839,9.5948, , ,195.2635,122.9645
801,24.8099,31.6931, , ,195.2635,123.0814
802,24.8359,40.2700, , ,195.2635,123.1433
803,24.8619,-82.0680, , ,195.2635,122.5440
804,24.8879,70.3357, , ,195.2635,123.0632
805,24.9139,-87.5608, , ,195.2635,122.3183
806,24.9399,-204.0759, , ,195.2635,121.7389
807,24.9659,-262.8854, , ,195.2635,121.3947
808,24.9919,-110.8400, , ,195.2635,121.9173
809,25.0179,7.3365, , ,195.2635,122.2993
810,25.0439,-146.6929, , ,195.2635,121.5656
811,25.0699,-27.2478, , ,195.2635,121.9539
812,25.0959,32.4518, , ,195.2635,122.1584
813,25.1219,222.7926, , ,195.2635,122.8952
814,25.1479,276.0490, , ,195.2635,123.0720
815,25.1739,248.5266, , ,195.2635,122.9204
816,25.1999,118.0631, , ,195.2635,122.3486
817,25.2259,132.0698, , ,195.2635,122.3659
818,25.2519,35.9807, , ,195.2635,121.9325
819,25.2779,-105.1330, , ,195.2635,121.3122
820,25.3039,70.7543, , ,195.2635,121.9949
821,25.3299,92.9715, , ,195.2635,121.9789
822,25.3559,-111.9905, , ,195.2635,121.0280
823,25.3819,-103.7143, , ,195.2635,120.9543
824,25.4079,-103.9068, , ,195.2635,120.8456
825,25.4339,61.8983, , ,195.2635,121.4222
826,25.4599,-1.5210, , ,195.2635,121.0529
827,25.4859,-60.2033, , ,195.2635,120.7022
828,25.5119,190.9065, , ,195.2635,121.6307
829,25.5379,79.7703, , ,195.2635,121.0651
830,25.5639,81.8766, , ,195.2635,120.9660
831,25.5899,-2.6570, , ,195.2635,120.5078
832,25.6159,7.6557, , ,195.2635,120.4422
833,25.6419,69.4962, , ,195.2635,120.5904
834,25.6679,120.0765, , ,195.2635,120.6918
835,25.6939,-32.7960, , ,195.2635,119.9481
836,25.7199,-87.4900, , ,195.2635,119.6108
837,25.7459,-34.8201, , ,195.2635,119.7217
838,25.7719,58.3033, , ,195.2635,120.0013
839,25.7979,25.8468, , ,195.2635,119.9466
840,25.8239,-19.1102, , ,195.2635,119.8397
841,25.8499,-46.9233, , ,195.2635,119.8043
842,25.8759,95.3223, , ,195.2635,120.4768
843,25.9019,128.0576, , ,195.2635,120.6927
844,25.9279,28.0526, , ,195.2635,120.3580
845,25.9539,113.8886, , ,195.2635,120.7941
846,25.9799,-41.2358, , ,195.2635,120.2307
847,26.0059,-32.6324, , ,195.2635,120.3469
848,26.0319,68.9829, , ,195.2635,120.7361
849,26.0579,-17.2377, , ,195.2635,120.3462
850,26.0839,-35.2692, , ,195.2635,120.2389
851,26.1099,19.8148, , ,195.2635,120.4355
852,26.1359,-38.0285, , ,195.2635,120.1627
853,26.1619,-71.3977, , ,195.2635,119.9914
854,26.1879,43.8341, , ,195.2635,120.4383
855,26.2139,68.3153, , ,195.2635,120.5076
856,26.2399,9.1733, , ,195.2635,120.2297
857,26.2659,-67.0636, , ,195.2635,119.9863
858,26.2919,-51.7628, , ,195.2635,120.1241
859,26.3179,87.4739, , ,195.2635,120.7759
860,26.3439,172.4735, , ,195.2635,121.2006
861,26.3699,195.4784, , ,195.2635,121.3687
862,26.3959,228.2460, , ,195.2635,121.5768
863,26.4219,188.8907, , ,195.2635,121.4880
864,26.4479,43.9310, , ,195.2635,120.9634
865,26.4739,-51.5969, , ,195.2635,120.6416
866,26.4999,-44.3494, , ,195.2635,120.6560
867,26.5259,-24.2385, , ,195.2635,120.7237
868,26.5519,-70.6140, , ,195.2635,120.5158
869,26.5779,-76.3933, , ,195.2635,120.4761
870,26.6039,-93.7240, , ,195.2635,120.3885
871,26.6299,-124.1926, , ,195.2635,120.2462
872,26.6559,-13.2646, , ,195.2635,120.6909
873,26.6819,-16.2882, , ,195.2635,120.6627
874,26.7079,-76.1498, , ,195.2635,120.3987
875,26.7339,380.7466, , ,195.2635,122.2660
876,26.7599,542.6229, , ,195.2635,122.9108
877,26.7859,507.4510, , ,195.2635,122.7523
878,26.8119,562.6663, , ,195.2635,122.9616
879,26.8379,531.6929, , ,195.2635,122.8202
880,26.8639,426.5229, , ,195.2635,122.3759
881,26.8899,195.2446, , ,195.2635,121.4117
882,26.9159,53.5399, , ,195.2635,120.8111
883,26.9419,-109.4556, , ,195.2635,120.1189
884,26.9679,43.0250, , ,195.2635,120.6553
885,26.9939,33.6136, , ,195.2635,120.5195
886,27.0199,-112.1654, , ,195.2635,119.8158
887,27.0459,-47.1045, , ,195.2635,119.9898
888,27.0719,4.0609, , ,195.2635,120.1058
889,27.0979,78.2074, , ,195.2635,120.3171
890,27.1239,11.8805, , ,195.2635,119.9439
891,27.1499,336.4287, , ,195.2635,121.1931
892,27.1759,538.0164, , ,195.2635,121.9263
893,27.2019,580.8225, , ,195.2635,122.0061
894,27.2279,503.3456, , ,195.2635,121.5923
895,27.2539,334.1992, , ,195.2635,120.7982
896,27.2799,231.6760, , ,195.2635,120.2761
897,27.3059,83.8892, , ,195.2635,119.5626
898,27.3319,63.8385, , ,195.2635,119.3811
899,27.3579,109.4897, , ,195.2635,119.4745
900,27.3839,31.3884, , ,195.2635,119.0492
901,27.4099,12.2200, , ,195.2635,118.8706
902,27.4359,-83.5989, , ,195.2635,118.4237
903,27.4619,-24.6221, , ,195.2635,118.6294
904,27.4879,34.8848, , ,195.2635,118.8369
905,27.5139,-66.7189, , ,195.2635,118.3655
906,27.5399,-33.6685, , ,195.2635,118.4619
907,27.5659,101.9566, , ,195.2635,118.9900
908,27.5919,34.8437, , ,195.2635,118.6646
909,27.6179,69.6571, , ,195.2635,118.7682
910,27.6439,28.4477, , ,195.2635,118.5515
911,27.6699,-85.8501, , ,195.2635,118.0548
912,27.6959,-111.7475, , ,195.2635,117.9314
913,27.7219,-34.0979, , ,195.2635,118.2465
914,27.7479,-62.3794, , ,195.2635,118.1132
915,27.7739,17.1735, , ,195.2635,118.4359
916,27.7999,-41.6030, , ,195.2635,118.1739
917,27.8259,24.4897, , ,195.2635,118.4396
918,27.8519,90.6212, , ,195.2635,118.7049
919,27.8779,81.6149, , ,195.2635,118.6533
920,27.9039,404.1330, , ,195.2635,119.9177
921,27.9299,595.1333, , ,195.2635,120.6249
922,27.9559,762.0123, , ,195.2635,121.2285
923,27.9819,834.3600, , ,195.2635,121.4405
924,28.0079,682.5929, , ,195.2635,120.7276
925,28.0339,647.9123, , ,195.2635,120.4972
926,28.0599,423.8932, , ,195.2635,119.4767
927,28.0859,196.5423, , ,195.2635,118.4332
928,28.1119,-6.4855, , ,195.2635,117.4841
929,28.1379,72.1013, , ,195.2635,117.7294
930,28.1639,-159.6944, , ,195.2635,116.6513
931,28.1899,-76.6213, , ,195.2635,116.9175
932,28.2159,-30.2965, , ,195.2635,117.0263
933,28.2419,-90.6981, , ,195.2635,116.6784
934,28.2679,-89.4202, , ,195.2635,116.5944
935,28.2939,29.6857, , ,195.2635,117.0148
936,28.3199,137.3634, , ,195.2635,117.3851
937,28.3459,111.3919, , ,195.2635,117.1853
938,28.3719,140.5632, , ,195.2635,117.1452
939,28.3979,185.1920, , ,195.2635,117.1712
940,28.4239,155.4259, , ,195.2635,116.8793
941,28.4499,142.4303, , ,195.2635,116.6585
942,28.4759,53.5051, , ,195.2635,116.1108
943,28.5019,82.5738, , ,195.2635,116.0700
944,28.5279,9.4123, , ,195.2635,115.5877
945,28.5539,-43.7638, , ,195.2635,115.1902
946,28.5799,8.9600, , ,195.2635,115.2517
947,28.6059,-18.9376, , ,195.2635,115.0978
948,28.6319,44.5586, , ,195.2635,115.3406
949,28.6579,-88.9125, , ,195.2635,114.7276
950,28.6839,-163.6326, , ,195.2635,114.3685
951,28.7099,-83.3877, , ,195.2635,114.6858
952,28.7359,15.3789, , ,195.2635,115.0828
953,28.7619,18.3120, , ,195.2635,115.0627
954,28.7879,-59.9020, , ,195.2635,114.6894
955,28.8139,13.0658, , ,195.2635,114.9742
956,28.8399,36.3472, , ,195.2635,115.0860
957,28.8659,-61.9699, , ,195.2635,114.6687
958,28.8919,-86.5060, , ,195.2635,114.5724
959,28.9179,-46.1628, , ,195.2635,114.7589
960,28.9439,-50.0446, , ,195.2635,114.7527
961,28.9699,-64.4049, , ,195.2635,114.7007
962,28.9959,-17.3465, , ,195.2635,114.9163
963,29.0219,48.8319, , ,195.2635,115.2145
964,29.0479,9.1972, , ,195.2635,115.0530
965,29.0739,-72.3157, , ,195.2635,114.6188
966,29.0999,57.7175, , ,195.2635,115.1055
967,29.1259,210.0986, , ,195.2635,115.6868
968,29.1519,147.6245, , ,195.2635,115.3375
969,29.1779,1.5878, , ,195.2635,114.6232
970,29.2039,1.0173, , ,195.2635,114.5412
971,29.2299,52.0756, , ,195.2635,114.6844
972,29.2559,50.9580, , ,195.2635,114.6001
973,29.2819,19.7012, , ,195.2635,114.3840
974,29.3079,-77.7780, , ,195.2635,113.8801
975,29.3339,51.9267, , ,195.2635,114.3714
976,29.3599,140.6533, , ,195.2635,114.6821
977,29.3859,140.0037, , ,195.2635,114.6027
978,29.4119,329.6231, , ,195.2635,115.3510
979,29.4379,665.9491, , ,195.2635,116.7245
980,29.4639,695.2701, , ,195.2635,116.7749
981,29.4899,825.7236, , ,195.2635,117.2573
982,29.5159,811.0195, , ,195.2635,117.1197
983,29.5419,592.4241, , ,195.2635,116.1071
984,29.5679,393.5321, , ,195.2635,115.1713
985,29.5939,347.1745, , ,195.2635,114.8935
986,29.6199,259.5526, , ,195.2635,114.4348
987,29.6459,137.1196, , ,195.2635,113.8215
988,29.6719,140.0545, , ,195.2635,113.7573
989,29.6979,120.8177, , ,195.2635,113.5955
990,29.7239,-50.3029, , ,195.2635,112.7619
991,29.7499,-12.6641, , ,195.2635,112.8509
992,29.7759,58.7068, , ,195.2635,113.0233
993,29.8019,-57.8250, , ,195.2635,112.3623
994,29.8279,112.2682, , ,195.2635,112.9732
995,29.8539,64.8212, , ,195.2635,112.6190
996,29.8799,-115.2425, , ,195.2635,111.6716
997,29.9059,-67.0795, , ,195.2635,111.7419
998,29.9319,-80.6967, , ,195.2635,111.5356
999,29.9579,73.0642, , ,195.2635,112.0781
1000,29.9839,-60.7547, , ,195.2635,111.3339
1001,30.0099,78.7122, , ,195.2635,111.9317
1002,30.0359,-56.3065, , ,195.2635,111.3000
1003,30.0619,-171.1399, , ,195.2635,110.7559
1004,30.0879,15.4256, , ,195.2635,111.5680
1005,30.1139,158.0892, , ,195.2635,112.1788
1006,30.1399,-10.8813, , ,195.2635,111.3962
1007,30.1659,130.6634, , ,195.2635,112.0030
1008,30.1919,5.1602, , ,195.2635,111.4144
1009,30.2179,22.0213, , ,195.2635,111.4631
1010,30.2439,-16.1085, , ,195.2635,111.1551
1011,30.2699,-140.4606, , ,195.2635,110.4566
1012,30.2959,130.8377, , ,195.2635,111.5415
1013,30.3219,-31.9956, , ,195.2635,110.6717
1014,30.3479,-98.8436, , ,195.2635,110.2313
1015,30.3739,-78.2357, , ,195.2635,110.1866
1016,30.3999,146.5941, , ,195.2635,111.0652
1017,30.4259,-59.2672, , ,195.2635,109.9963
1018,30.4519,-69.5022, , ,195.2635,109.8112
1019,30.4779,21.8748, , ,195.2635,110.2335
1020,30.5039,89.2866, , ,195.2635,110.5459
1021,30.5299,213.5360, , ,195.2635,111.1135
1022,30.5559,207.6134, , ,195.2635,111.0938
1023,30.5819,222.2032, , ,195.2635,111.1665
1024,30.6079,282.1427, , ,195.2635,111.4427
1025,30.6339,56.5245, , ,195.2635,110.4328
1026,30.6599,22.4364, , ,195.2635,110.2855
1027,30.6859,56.8328, , ,195.2635,110.4483
1028,30.7119,-37.2019, , ,195.2635,109.9410
1029,30.7379,-110.1722, , ,195.2635,109.5275
1030,30.7639,-54.4621, , ,195.2635,109.7005
1031,30.7899,-27.0612, , ,195.2635,109.7444
1032,30.8159,-43.3616, , ,195.2635,109.5890
1033,30.8419,39.7139, , ,195.2635,109.8865
1034,30.8679,-85.5377, , ,195.2635,109.2338
1035,30.8939,-30.6418, , ,195.2635,109.4035
1036,30.9199,54.6770, , ,195.2635,109.7118
1037,30.9459,-3.1343, , ,195.2635,109.3068
1038,30.9719,12.7504, , ,195.2635,109.2381
1039,30.9979,-67.6298, , ,195.2635,108.7277
1040,31.0239,-54.9718, , ,195.2635,108.6438
1041,31.0499,-79.6499, , ,195.2635,108.3878
1042,31.0759,-34.3488, , ,195.2635,108.4542
1043,31.1019,-48.6706, , ,195.2635,108.2456
1044,31.1279,-10.0186, , ,195.2635,108.2814
1045,31.1539,-28.7868, , ,195.2635,108.0519
1046,31.1799,7.8727, , ,195.2635,108.1701
1047,31.2059,112.4177, , ,195.2635,108.6011
1048,31.2319,172.4392, , ,195.2635,108.8260
1049,31.2579,201.2944, , ,195.2635,108.9075
1050,31.2839,199.4411, , ,195.2635,108.8480
1051,31.3099,103.0618, , ,195.2635,108.3531
1052,31.3359,92.0976, , ,195.2635,108.2512
1053,31.3619,115.5187, , ,195.2635,108.3080
1054,31.3879,-45.2555, , ,195.2635,107.5116
1055,31.4139,-77.6336, , ,195.2635,107.2926
1056,31.4399,-3.5477, , ,195.2635,107.5691
1057,31.4659,-6.7454, , ,195.2635,107.4861
1058,31.4919,-22.5261, , ,195.2635,107.3443
1059,31.5179,-14.7187, , ,195.2635,107.3124
1060,31.5439,9.0413, , ,195.2635,107.3547
1061,31.5699,2.3851, , ,195.2635,107.2554
1062,31.5959,0.8501, , ,195.2635,107.1798
1063,31.6219,-23.7636, , ,195.2635,106.9964
1064,31.6479,4.9925, , ,195.2635,106.9439
1065,31.6739,97.0094, , ,195.2635,107.1868
1066,31.6999,144.3516, , ,195.2635,107.2210
1067,31.7259,142.2214, , ,195.2635,107.0244
1068,31.7519,104.7574, , ,195.2635,106.6619
1069,31.7779,168.7296, , ,195.2635,106.7742
1070,31.8039,90.7714, , ,195.2635,106.2204
1071,31.8299,-132.7927, , ,195.2635,104.9724
1072,31.8559,-35.7242, , ,195.2635,105.2439
1073,31.8819,113.0187, , ,195.2635,105.9041
1074,31.9079,68.4235, , ,195.2635,105.6492
1075,31.9339,-27.4655, , ,195.2635,105.1501
1076,31.9599,93.1006, , ,195.2635,105.6777
1077,31.9859,284.4279, , ,195.2635,106.5353
1078,32.0119,169.0870, , ,195.2635,105.9485
1079,32.0379,24.3518, , ,195.2635,105.2189
1080,32.0639,36.1977, , ,195.2635,105.2308
1081,32.0899,20.4348, , ,195.2635,105.1115
1082,32.1159,-33.7966, , ,195.2635,104.8713
1083,32.1419,-55.1539, , ,195.2635,104.7874
1084,32.1679,-40.4256, , ,195.2635,104.8757
1085,32.1939,-2.1188, , ,195.2635,105.0761
1086,32.2199,11.0014, , ,195.2635,105.1565
1087,32.2459,32.5610, , ,195.2635,105.2769
1088,32.2719,72.9180, , ,195.2635,105.4863
1089,32.2979,15.8756, , ,195.2635,105.2335
1090,32.3239,66.4839, , ,195.2635,105.4916
1091,32.3499,-107.5454, , ,195.2635,104.6593
1092,32.3759,-55.2087, , ,195.2635,104.9048
1093,32.4019,7.4262, , ,195.2635,105.1987
1094,32.4279,92.9928, , ,195.2635,105.6004
1095,32.4539,-119.5147, , ,195.2635,104.5851
1096,32.4799,-16.8666, , ,195.2635,105.0705
1097,32.5059,32.6111, , ,195.2635,105.3014
1098,32.5319,-164.0408, , ,195.2635,104.3592
1099,32.5579,-22.1606, , ,195.2635,105.0326
1100,32.5839,133.3512, , ,195.2635,105.6147
1101,32.6099,194.6471, , ,195.2635,105.7491
1102,32.6359,209.9217, , ,195.2635,105.6658
1103,32.6619,370.2313, , ,195.2635,106.2670
1104,32.6879,251.8800, , ,195.2635,105.5530
1105,32.7139,290.3898, , ,195.2635,105.5796
1106,32.7399,189.5045, , ,195.2635,104.9442
1107,32.7659,25.0971, , ,195.2635,103.9999
1108,32.7919,-52.3209, , ,195.2635,103.4683
1109,32.8179,-16.1911, , ,195.2635,103.5462
1110,32.8439,-43.8140, , ,195.2635,103.3160
1111,32.8699,139.6094, , ,195.2635,104.1038
1112,32.8959,54.4108, , ,195.2635,103.5973
1113,32.9219,67.8368, , ,195.2635,103.5656
1114,32.9479,15.8691, , ,195.2635,103.2176
1115,32.9739,251.1544, , ,195.2635,104.2552
1116,32.9999,24.8977, , ,195.2635,103.0674
1117,33.0259,174.6520, , ,195.2635,103.6950
1118,33.0519,-21.1579, , ,195.2635,102.6491
1119,33.0779,-23.7074, , ,195.2635,102.5392
1120,33.1039,162.8426, , ,195.2635,103.3482
1121,33.1299,-105.8967, , ,195.2635,101.9417
1122,33.1559,24.7979, , ,195.2635,102.4832
1123,33.1819,101.2661, , ,195.2635,102.7583
1124,33.2079,-35.4192, , ,195.2635,101.9930
1125,33.2339,55.8080, , ,195.2635,102.3416
1126,33.2599,-39.7458, , ,195.2635,101.7755
1127,33.2859,-34.9373, , ,195.2635,101.7904
1128,33.3119,19.2382, , ,195.2635,102.0475
1129,33.3379,27.5221, , ,195.2635,102.0793
1130,33.3639,-36.0182, , ,195.2635,101.7589
1131,33.3899,-97.9962, , ,195.2635,101.4451
1132,33.4159,-34.9578, , ,195.2635,101.7466
1133,33.4419,-90.3009, , ,195.2635,101.4655
1134,33.4679,55.4253, , ,195.2635,102.1724
1135,33.4939,-62.7715, , ,195.2635,101.5836
1136,33.5199,32.0525, , ,195.2635,101.9676
1137,33.5459,53.1065, , ,195.2635,101.9891
1138,33.5719,72.1795, , ,195.2635,102.0009
1139,33.5979,-48.4819, , ,195.2635,101.3255
1140,33.6239,-4.3943, , ,195.2635,101.4607
1141,33.6499,45.4143, , ,195.2635,101.6239
1142,33.6759,105.2720, , ,195.2635,101.8362
1143,33.7019,34.0447, , ,195.2635,101.4037
1144,33.7279,-6.9868, , ,195.2635,101.1188
1145,33.7539,-54.1483, , ,195.2635,100.7647
1146,33.7799,-43.3184, , ,195.2635,100.6976
1147,33.8059,62.0297, , ,195.2635,101.0991
1148,33.8319,87.7440, , ,195.2635,101.1059
1149,33.8579,21.0378, , ,195.2635,100.6547
1150,33.8839,37.9816, , ,195.2635,100.6180
1151,33.9099,23.3978, , ,195.2635,100.4244
1152,33.9359,106.2948, , ,195.2635,100.7156
1153,33.9619,224.3027, , ,195.2635,101.1796
1154,33.9879,272.9315, , ,195.2635,101.2995
1155,34.0139,262.6938, , ,195.2635,101.1288
1156,34.0399,207.7165, , ,195.2635,100.7359
1157,34.0659,171.8389, , ,195.2635,100.4366
1158,34.0919,125.1386, , ,195.2635,100.0823
1159,34.1179,27.1980, , ,195.2635,99.4696
1160,34.1439,71.7155, , ,195.2635,99.5710
1161,34.1699,78.9372, , ,195.2635,99.4850
1162,34.1959,-35.6549, , ,195.2635,98.7843
1163,34.2219,-50.2621, , ,195.2635,98.6901
1164,34.2479,-36.0591, , ,195.2635,98.7418
1165,34.2739,-22.8117, , ,195.2635,98.7886
1166,34.2999,-59.2608, , ,195.2635,98.5837
1167,34.3259,-42.9208, , ,195.2635,98.6462
1168,34.3519,37.2544, , ,195.2635,99.0316
1169,34.3779,-2.0258, , ,195.2635,98.8128
1170,34.4039,-1.4010, , ,195.2635,98.7957
1171,34.4299,13.7769, , ,195.2635,98.8523
1172,34.4559,0.2877, , ,195.2635,98.6749
1173,34.4819,-2.4700, , ,195.2635,98.5516
1174,34.5079,-75.4936, , ,195.2635,98.0706
1175,34.5339,41.8370, , ,195.2635,98.5577
1176,34.5599,43.9060, , ,195.2635,98.4588
1177,34.5859,-56.6365, , ,195.2635,97.8368
1178,34.6119,-0.8038, , ,195.2635,98.0118
1179,34.6379,80.1381, , ,195.2635,98.3143
1180,34.6639,-2.9073, , ,195.2635,97.7808
1181,34.6899,-75.1703, , ,195.2635,97.4106
1182,34.7159,-4.7288, , ,195.2635,97.7715
1183,34.7419,-7.8283, , ,195.2635,97.7557
1184,34.7679,15.8885, , ,195.2635,97.8769
1185,34.7939,21.4027, , ,195.2635,97.9051
1186,34.8199,161.6044, , ,195.2635,98.6185
1187,34.8459,172.5335, , ,195.2635,98.6739
1188,34.8719,107.6864, , ,195.2635,98.3447
1189,34.8979,5.0954, , ,195.2635,97.8218
1190,34.9239,169.5206, , ,195.2635,98.6586
1191,34.9499,89.2193, , ,195.2635,98.2508
1192,34.9759,34.8818, , ,195.2635,97.9739
1193,35.0019,73.1412, , ,195.2635,98.1689
1194,35.0279,83.8056, , ,195.2635,98.2232
1195,35.0539,56.6884, , ,195.2635,98.0851
1196,35.0799,17.6073, , ,195.2635,97.8857
1197,35.1059,-30.5920, , ,195.2635,97.6392
1198,35.1319,23.4194, , ,195.2635,97.9154
1199,35.1579,20.8441, , ,195.2635,97.8375
1200,35.1839,-9.1246, , ,195.2635,97.6194
1201,35.2099,-13.8829, , ,195.2635,97.5301
1202,35.2359,-35.0480, , ,195.2635,97.3565
1203,35.2619,86.6733, , ,195.2635,97.9150
1204,35.2879,77.6210, , ,195.2635,97.8040
1205,35.3139,47.8316, , ,195.2635,97.5867
1206,35.3399,40.8566, , ,195.2635,97.4860
1207,35.3659,-37.6081, , ,195.2635,97.0175
1208,35.3919,-47.9376, , ,195.2635,96.9092
1209,35.4179,66.3209, , ,195.2635,97.4422
1210,35.4439,-26.9067, , ,195.2635,96.9077
1211,35.4699,-87.9085, , ,195.2635,96.5372
1212,35.4959,150.9178, , ,195.2635,97.7117
1213,35.5219,131.7851, , ,195.2635,97.5591
1214,35.5479,175.9006, , ,195.2635,97.7304
1215,35.5739,70.0945, , ,195.2635,97.1327
1216,35.5999,113.4756, , ,195.2635,97.3010
1217,35.6259,97.0715, , ,195.2635,97.1617
1218,35.6519,1.7738, , ,195.2635,96.6149
1219,35.6779,78.6068, , ,195.2635,96.9567
1220,35.7039,-90.4817, , ,195.2635,96.0253
1221,35.7299,-132.0398, , ,195.2635,95.7529
1222,35.7559,-61.8310, , ,195.2635,96.0634
1223,35.7819,-4.7599, , ,195.2635,96.3046
1224,35.8079,45.6277, , ,195.2635,96.5106
1225,35.8339,-68.6729, , ,195.2635,95.8610
1226,35.8599,-12.4839, , ,195.2635,96.0334
1227,35.8859,85.4873, , ,195.2635,96.4223
1228,35.9119,115.8274, , ,195.2635,96.4598
1229,35.9379,20.6118, , ,195.2635,95.8445
1230,35.9639,6.1994, , ,195.2635,95.6485
1231,35.9899,12.7237, , ,195.2635,95.5618
1232,36.0159,-9.0734, , ,195.2635,95.3265
1233,36.0419,-24.3637, , ,195.2635,95.1249
1234,36.0679,-24.8596, , ,195.2635,95.0007
1235,36.0939,69.1333, , ,195.2635,95.4138
1236,36.1199,-5.0320, , ,195.2635,94.9437
1237,36.1459,1.8330, , ,195.2635,94.8991
1238,36.1719,47.3866, , ,195.2635,95.0582
1239,36.1979,90.1488, , ,195.2635,95.2023
1240,36.2239,40.2305, , ,195.2635,94.8590
1241,36.2499,-6.0665, , ,195.2635,94.5336
1242,36.2759,8.2128, , ,195.2635,94.5280
1243,36.3019,22.6790, , ,195.2635,94.5234
1244,36.3279,-13.1875, , ,195.2635,94.3465
1245,36.3539,-51.1137, , ,195.2635,94.1582
1246,36.3799,-42.5849, , ,195.2635,94.2165
1247,36.4059,4.7181, , ,195.2635,94.4801
1248,36.4319,-53.4482, , ,195.2635,94.1848
1249,36.4579,-52.5560, , ,195.2635,94.2025
1250,36.4839,-103.0569, , ,195.2635,93.9471
1251,36.5099,-22.6308, , ,195.2635,94.3871
1252,36.5359,44.1337, , ,195.2635,94.7530
1253,36.5619,38.0783, , ,195.2635,94.5966
1254,36.5879,-8.1441, , ,195.2635,94.2271
1255,36.6139,-2.8466, , ,195.2635,94.1302
1256,36.6399,12.9586, , ,195.2635,94.0890
1257,36.6659,-48.7616, , ,195.2635,93.6347
1258,36.6919,-88.1067, , ,195.2635,93.2982
1259,36.7179,-71.1699, , ,195.2635,93.2628
1260,36.7439,1.0359, , ,195.2635,93.5232
1261,36.7699,9.7509, , ,195.2635,93.4438
1262,36.7959,-2.0600, , ,195.2635,93.3449
1263,36.8219,30.1803, , ,195.2635,93.4818
1264,36.8479,70.7207, , ,195.2635,93.6628
1265,36.8739,69.7927, , ,195.2635,93.6223
1266,36.8999,-4.0272, , ,195.2635,93.1914
1267,36.9259,-13.3532, , ,195.2635,93.1056
1268,36.9519,34.4996, , ,195.2635,93.3265
1269,36.9779,8.4224, , ,195.2635,93.1509
1270,37.0039,-59.0337, , ,195.2635,92.7522
1271,37.0299,33.1238, , ,195.2635,93.1821
1272,37.0559,47.2466, , ,195.2635,93.1923
1273,37.0819,76.1223, , ,195.2635,93.2816
1274,37.1079,52.4907, , ,195.2635,93.0892
1275,37.1339,31.4312, , ,195.2635,92.9103
1276,37.1599,46.3507, , ,195.2635,92.9248
1277,37.1859,-21.6003, , ,195.2635,92.4924
1278,37.2119,-33.9569, , ,195.2635,92.3594
1279,37.2379,-20.1910, , ,195.2635,92.3678
1280,37.2639,52.2835, , ,195.2635,92.7398
1281,37.2899,62.5728, , ,195.2635,92.7758
1282,37.3159,43.8473, , ,195.2635,92.6554
1283,37.3419,93.2535, , ,195.2635,92.9021
1284,37.3679,125.8071, , ,195.2635,93.0578
1285,37.3939,183.8457, , ,195.2635,93.3498
1286,37.4199,107.1709, , ,195.2635,92.9187
1287,37.4459,129.9130, , ,195.2635,93.0216
1288,37.4719,181.9142, , ,195.2635,93.2814
1289,37.4979,45.1024, , ,195.2635,92.5256
1290,37.5239,-56.3587, , ,195.2635,91.9561
1291,37.5499,45.4909, , ,195.2635,92.4887
1292,37.5759,46.0523, , ,195.2635,92.4722
1293,37.6019,105.0460, , ,195.2635,92.7712
1294,37.6279,36.6281, , ,195.2635,92.3821
1295,37.6539,-3.9919, , ,195.2635,92.1424
1296,37.6799,137.0456, , ,195.2635,92.8852
1297,37.7059,96.2345, , ,195.2635,92.6457
1298,37.7319,94.2337, , ,195.2635,92.4939
1299,37.7579,-6.1320, , ,195.2635,91.8077
1300,37.7839,115.9227, , ,195.2635,92.3287
1301,37.8099,95.1556, , ,195.2635,92.0745
1302,37.8359,-56.7181, , ,195.2635,91.1028
1303,37.8619,45.9923, , ,195.2635,91.5223
1304,37.8879,-1.2130, , ,195.2635,91.1208
1305,37.9139,-53.6151, , ,195.2635,90.6890
1306,37.9399,-15.9355, , ,195.2635,90.7528
1307,37.9659,43.3060, , ,195.2635,91.0481
1308,37.9919,53.1914, , ,195.2635,91.0718
1309,38.0179,-75.5784, , ,195.2635,90.3314
1310,38.0439,64.5637, , ,195.2635,91.0733
1311,38.0699,18.7729, , ,195.2635,90.7909
1312,38.0959,-55.6754, , ,195.2635,90.3493
1313,38.1219,-92.4088, , ,195.2635,90.1149
1314,38.1479,8.4199, , ,195.2635,90.6420
1315,38.1739,68.8666, , ,195.2635,90.9443
1316,38.1999,-10.8695, , ,195.2635,90.4840
1317,38.2259,-57.4775, , ,195.2635,90.2051
1318,38.2519,50.7757, , ,195.2635,90.7824
1319,38.2779,39.3703, , ,195.2635,90.6987
1320,38.3039,-10.7123, , ,195.2635,90.4013
1321,38.3299,28.7830, , ,195.2635,90.5987
1322,38.3559,-23.6630, , ,195.2635,90.2878
1323,38.3819,17.9250, , ,195.2635,90.4970
1324,38.4079,15.5556, , ,195.2635,90.4630
1325,38.4339,-53.4178, , ,195.2635,90.0730
1326,38.4599,78.0693, , ,195.2635,90.7920
1327,38.4859,166.4271, , ,195.2635,91.2693
1328,38.5119,175.5868, , ,195.2635,91.3116
1329,38.5379,137.7724, , ,195.2635,91.0964
1330,38.5639,-11.1555, , ,195.2635,90.2673
1331,38.5899,83.2203, , ,195.2635,90.7806
1332,38.6159,183.8421, , ,195.2635,91.3252
1333,38.6419,237.9470, , ,195.2635,91.6130
1334,38.6679,82.9460, , ,195.2635,90.7552
1335,38.6939,64.7546, , ,195.2635,90.6469
1336,38.7199,55.8541, , ,195.2635,90.5898
1337,38.7459,107.6893, , ,195.2635,90.8675
1338,38.7719,11.4572, , ,195.2635,90.3285
1339,38.7979,112.4798, , ,195.2635,90.8780
1340,38.8239,111.8915, , ,195.2635,90.8668
1341,38.8499,57.9182, , ,195.2635,90.5614
1342,38.8759,-39.6631, , ,195.2635,90.0130
1343,38.9019,-79.9782, , ,195.2635,89.7232
1344,38.9279,33.7519, , ,195.2635,90.2895
1345,38.9539,41.8688, , ,195.2635,90.2692
1346,38.9799,22.2392, , ,195.2635,90.0951
1347,39.0059,-31.4766, , ,195.2635,89.7309
1348,39.0319,-50.3869, , ,195.2635,89.5597
1349,39.0579,-16.0070, , ,195.2635,89.6858
1350,39.0839,-67.8011, , ,195.2635,89.3307
1351,39.1099,-46.4754, , ,195.2635,89.3841
1352,39.1359,72.2247, , ,195.2635,90.0913
1353,39.1619,111.3347, , ,195.2635,90.3536
1354,39.1879,64.1917, , ,195.2635,90.1380
1355,39.2139,53.8001, , ,195.2635,90.1260
1356,39.2399,66.1396, , ,195.2635,90.2400
1357,39.2659,107.5345, , ,195.2635,90.5145
1358,39.2919,96.8836, , ,195.2635,90.5010
1359,39.3179,5.7436, , ,195.2635,90.0418
1360,39.3439,-31.1128, , ,195.2635,89.8826
1361,39.3699,-0.9440, , ,195.2635,90.0748
1362,39.3959,-11.6424, , ,195.2635,90.0400
1363,39.4219,19.0689, , ,195.2635,90.2349
1364,39.4479,58.9134, , ,195.2635,90.4798
1365,39.4739,25.7800, , ,195.2635,90.3210
1366,39.4999,111.3500, , ,195.2635,90.8179
1367,39.5259,165.5657, , ,195.2635,91.1401
1368,39.5519,57.5140, , ,195.2635,90.5698
1369,39.5779,-23.4356, , ,195.2635,90.1463
1370,39.6039,28.3664, , ,195.2635,90.4577
1371,39.6299,150.8305, , ,195.2635,91.1563
1372,39.6559,85.1799, , ,195.2635,90.8199
1373,39.6819,-2.5342, , ,195.2635,90.3601
1374,39.7079,-1.4190, , ,195.2635,90.3908
1375,39.7339,20.1328, , ,195.2635,90.5343
1376,39.7599,52.1552, , ,195.2635,90.7354
1377,39.7859,52.7263, , ,195.2635,90.7629
1378,39.8119,43.6758, , ,195.2635,90.7374
1379,39.8379,43.5361, , ,195.2635,90.7610
1380,39.8639,96.1441, , ,195.2635,91.0746
1381,39.8899,-14.4981, , ,195.2635,90.4896
1382,39.9159,-67.8296, , ,195.2635,90.2189
1383,39.9419,4.1283, , ,195.2635,90.6413
1384,39.9679,2.2111, , ,195.2635,90.6307
