No.,Pos. [°2Th.],Iobs [cts],Icalc [cts],Iback [cts],CT [s],ESD
1,4.0099,0.0000, , ,195.2635,253.1514
2,4.0359,-1124.7270, , ,195.2635,243.8557
3,4.0619,-1633.2170, , ,195.2635,235.5034
4,4.0879,-1518.0050, , ,195.2635,228.2143
5,4.1139,-1132.2540, , ,195.2635,221.2967
6,4.1399,-137.9062, , ,195.2635,215.5720
7,4.1659,1134.5510, , ,195.2635,210.3531
8,4.1919,1805.2130, , ,195.2635,203.5284
9,4.2179,3053.7790, , ,195.2635,197.9320
10,4.2439,4328.5440, , ,195.2635,192.2408
11,4.2699,3672.8770, , ,195.2635,190.2242
12,4.2959,3408.7510, , ,195.2635,189.2234
13,4.3219,2994.3490, , ,195.2635,187.8177
14,4.3479,2634.3980, , ,195.2635,186.5473
15,4.3739,2483.0010, , ,195.2635,185.8302
16,4.3999,2092.9760, , ,195.2635,184.4647
17,4.4259,1879.6400, , ,195.2635,183.5709
18,4.4519,1733.5310, , ,195.2635,182.8566
19,4.4779,1593.1570, , ,195.2635,182.1552
20,4.5039,1172.7160, , ,195.2635,180.6462
21,4.5299,1090.0060, , ,195.2635,180.0646
22,4.5559,860.8932, , ,195.2635,179.0729
23,4.5819,881.8094, , ,195.2635,178.7763
24,4.6079,767.2947, , ,195.2635,178.0994
25,4.6339,697.5913, , ,195.2635,177.5461
26,4.6599,499.5070, , ,195.2635,176.6281
27,4.6859,523.6881, , ,195.2635,176.3367
28,4.7119,448.1673, , ,195.2635,175.7613
29,4.7379,284.5447, , ,195.2635,174.9325
30,4.7639,121.6928, , ,195.2635,174.1019
31,4.7899,235.2350, , ,195.2635,174.0630
32,4.8159,162.8264, , ,195.2635,173.4891
33,4.8419,133.8894, , ,195.2635,173.0390
34,4.8679,132.4780, , ,195.2635,172.6674
35,4.8939,16.1738, , ,195.2635,171.9612
36,4.9199,150.2528, , ,195.2635,171.9816
37,4.9459,222.2269, , ,195.2635,171.8214
38,4.9719,70.2610, , ,195.2635,170.9741
39,4.9979,159.2406, , ,195.2635,170.8293
40,5.0239,169.5137, , ,195.2635,170.4536
41,5.0499,77.2937, , ,195.2635,169.7755
42,5.0759,5.1132, , ,195.2635,169.1539
43,5.1019,-105.4462, , ,195.2635,168.4162
44,5.1279,-28.0765, , ,195.2635,168.2346
45,5.1539,10.4398, , ,195.2635,167.9373
46,5.1799,-58.3379, , ,195.2635,167.3190
47,5.2059,-19.3464, , ,195.2635,167.1679
48,5.2319,129.8959, , ,195.2635,167.3463
49,5.2579,243.9093, , ,195.2635,167.4194
50,5.2839,111.4452, , ,195.2635,166.7550
51,5.3099,-22.5318, , ,195.2635,166.0834
52,5.3359,0.7449, , ,195.2635,165.8837
53,5.3619,-24.2813, , ,195.2635,165.5380
54,5.3879,36.4903, , ,195.2635,165.4510
55,5.4139,29.3392, , ,195.2635,165.1585
56,5.4399,-51.1895, , ,195.2635,164.6354
57,5.4659,-13.2521, , ,195.2635,164.4711
58,5.4919,-95.1824, , ,195.2635,163.9415
59,5.5179,-167.3951, , ,195.2635,163.4399
60,5.5439,-32.8176, , ,195.2635,163.5701
61,5.5699,69.3079, , ,195.2635,163.6011
62,5.5959,-44.4585, , ,195.2635,162.9710
63,5.6219,-70.9252, , ,195.2635,162.6071
64,5.6479,6.2022, , ,195.2635,162.5614
65,5.6739,76.5461, , ,195.2635,162.4824
66,5.6999,-29.3623, , ,195.2635,161.8599
67,5.7259,-4.9153, , ,195.2635,161.6387
68,5.7519,-21.7311, , ,195.2635,161.2894
69,5.7779,-33.6557, , ,195.2635,160.9545
70,5.8039,33.0227, , ,195.2635,160.8634
71,5.8299,24.5776, , ,195.2635,160.5384
72,5.8559,58.4323, , ,195.2635,160.3447
73,5.8819,-75.3079, , ,195.2635,159.6267
74,5.9079,64.8876, , ,195.2635,159.7623
75,5.9339,-63.2576, , ,195.2635,159.0565
76,5.9599,-40.0870, , ,195.2635,158.8246
77,5.9859,76.0326, , ,195.2635,158.8851
78,6.0119,131.5876, , ,195.2635,158.7550
79,6.0379,72.7301, , ,195.2635,158.2637
80,6.0639,-115.4170, , ,195.2635,157.3606
81,6.0899,80.1619, , ,195.2635,157.6739
82,6.1159,113.1436, , ,195.2635,157.4711
83,6.1419,-86.7894, , ,195.2635,156.5478
84,6.1679,-109.0307, , ,195.2635,156.1889
85,6.1939,-24.9978, , ,195.2635,156.1698
86,6.2199,155.3712, , ,195.2635,156.4588
87,6.2459,-35.3426, , ,195.2635,155.5592
88,6.2719,-66.3020, , ,195.2635,155.1699
89,6.2979,82.7775, , ,195.2635,155.3602
90,6.3239,-19.8330, , ,195.2635,154.7390
91,6.3499,4.6786, , ,195.2635,154.5273
92,6.3759,-79.7715, , ,195.2635,154.0669
93,6.4019,91.3052, , ,195.2635,154.4347
94,6.4279,118.1935, , ,195.2635,154.3352
95,6.4539,136.3610, , ,195.2635,154.2074
96,6.4799,57.2509, , ,195.2635,153.7634
97,6.5059,-153.5742, , ,195.2635,152.8881
98,6.5319,-23.3799, , ,195.2635,153.1253
99,6.5579,281.7202, , ,195.2635,153.9313
100,6.5839,-1.7884, , ,195.2635,152.8192
101,6.6099,-77.3775, , ,195.2635,152.3828
102,6.6359,140.5329, , ,195.2635,152.9079
103,6.6619,-226.4100, , ,195.2635,151.5132
104,6.6879,-121.4787, , ,195.2635,151.6693
105,6.7139,-80.9594, , ,195.2635,151.6129
106,6.7399,-53.9589, , ,195.2635,151.5120
107,6.7659,44.1921, , ,195.2635,151.6457
108,6.7919,20.4778, , ,195.2635,151.3773
109,6.8179,313.6779, , ,195.2635,152.1535
110,6.8439,-210.7236, , ,195.2635,150.1864
111,6.8699,116.1388, , ,195.2635,151.0380
112,6.8959,87.2337, , ,195.2635,150.7091
113,6.9219,122.8015, , ,195.2635,150.5937
114,6.9479,51.1186, , ,195.2635,150.1215
115,6.9739,-61.3549, , ,195.2635,149.5114
116,6.9999,-229.2090, , ,195.2635,148.7127
117,7.0259,-87.5957, , ,195.2635,148.9521
118,7.0519,134.8642, , ,195.2635,149.4619
119,7.0779,62.7752, , ,195.2635,149.0835
120,7.1039,-14.1253, , ,195.2635,148.6879
121,7.1299,-29.8210, , ,195.2635,148.4975
122,7.1559,131.1476, , ,195.2635,148.9013
123,7.1819,50.9319, , ,195.2635,148.4941
124,7.2079,-41.0710, , ,195.2635,148.0459
125,7.2339,-4.8681, , ,195.2635,148.0301
126,7.2599,243.1548, , ,195.2635,148.7281
127,7.2859,102.4410, , ,195.2635,148.1163
128,7.3119,-37.0829, , ,195.2635,147.5060
129,7.3379,34.7932, , ,195.2635,147.6110
130,7.3639,24.9296, , ,195.2635,147.4390
131,7.3899,14.0444, , ,195.2635,147.2633
132,7.4159,19.9001, , ,195.2635,147.1443
133,7.4419,70.9476, , ,195.2635,147.1789
134,7.4679,17.1881, , ,195.2635,146.8570
135,7.4939,-9.7307, , ,195.2635,146.6259
136,7.5199,-29.5714, , ,195.2635,146.4187
137,7.5459,25.5139, , ,195.2635,146.4747
138,7.5719,33.7422, , ,195.2635,146.3708
139,7.5979,34.9280, , ,195.2635,146.2427
140,7.6239,67.3429, , ,195.2635,146.2213
141,7.6499,67.0863, , ,195.2635,146.0882
142,7.6759,56.0606, , ,195.2635,145.9180
143,7.7019,48.6786, , ,195.2635,145.7601
144,7.7279,28.2378, , ,195.2635,145.5572
145,7.7539,-1.6260, , ,195.2635,145.3216
146,7.7799,-81.9719, , ,195.2635,145.1123
147,7.8059,-38.6991, , ,195.2635,145.3286
148,7.8319,-59.2612, , ,195.2635,145.3252
149,7.8579,-92.3287, , ,195.2635,145.2787
150,7.8839,-152.1758, , ,195.2635,145.1399
151,7.9099,-183.6345, , ,195.2635,145.0989
152,7.9359,-77.3696, , ,195.2635,145.5318
153,7.9619,29.3306, , ,195.2635,145.9650
154,7.9879,23.6106, , ,195.2635,146.0124
155,8.0139,8.7771, , ,195.2635,146.0321
156,8.0399,141.1880, , ,195.2635,146.5550
157,8.0659,406.4740, , ,195.2635,147.5271
158,8.0919,663.4990, , ,195.2635,148.4650
159,8.1179,849.6894, , ,195.2635,149.1598
160,8.1439,1280.3060, , ,195.2635,150.6647
161,8.1699,1969.0730, , ,195.2635,153.0007
162,8.1959,2795.0270, , ,195.2635,155.7426
163,8.2219,3578.0790, , ,195.2635,158.3016
164,8.2479,4476.2640, , ,195.2635,161.1318
165,8.2739,5003.9990, , ,195.2635,162.7793
166,8.2999,4420.0620, , ,195.2635,160.9940
167,8.3259,3488.9800, , ,195.2635,158.0946
168,8.3519,2382.1920, , ,195.2635,154.5736
169,8.3779,1440.6810, , ,195.2635,151.5170
170,8.4039,696.6852, , ,195.2635,149.0614
171,8.4299,402.1621, , ,195.2635,148.0901
172,8.4559,195.0044, , ,195.2635,147.4090
173,8.4819,196.0641, , ,195.2635,147.3768
174,8.5079,94.8055, , ,195.2635,146.9970
175,8.5339,102.0084, , ,195.2635,146.9857
176,8.5599,356.7120, , ,195.2635,147.8139
177,8.5859,468.4597, , ,195.2635,148.1558
178,8.6119,609.7122, , ,195.2635,148.5963
179,8.6379,1149.9500, , ,195.2635,150.3681
180,8.6639,1585.5060, , ,195.2635,151.7747
181,8.6899,2193.5000, , ,195.2635,153.7303
182,8.7159,3080.9920, , ,195.2635,156.5041
183,8.7419,4079.0410, , ,195.2635,159.5763
184,8.7679,5835.9890, , ,195.2635,164.9077
185,8.7939,8012.2530, , ,195.2635,171.3004
186,8.8199,11075.3400, , ,195.2635,179.9443
187,8.8459,15394.0700, , ,195.2635,191.4985
188,8.8719,20455.5200, , ,195.2635,204.2209
189,8.8979,26145.2000, , ,195.2635,217.6439
190,8.9239,31433.0700, , ,195.2635,229.4118
191,8.9499,35748.2000, , ,195.2635,238.5747
192,8.9759,36340.1800, , ,195.2635,239.7559
193,9.0019,32600.7300, , ,195.2635,231.7681
194,9.0279,26857.4700, , ,195.2635,218.9663
195,9.0539,20191.7800, , ,195.2635,203.1097
196,9.0799,14338.2200, , ,195.2635,188.0771
197,9.1059,9833.2770, , ,195.2635,175.6163
198,9.1319,6980.7200, , ,195.2635,167.2171
199,9.1579,5292.5660, , ,195.2635,162.0075
200,9.1839,3917.4640, , ,195.2635,157.5687
201,9.2099,3301.8390, , ,195.2635,155.4634
202,9.2359,2767.3190, , ,195.2635,153.5934
203,9.2619,2441.5110, , ,195.2635,152.3867
204,9.2879,2447.9090, , ,195.2635,152.2651
205,9.3139,2419.1860, , ,195.2635,152.0281
206,9.3399,2930.8180, , ,195.2635,153.5602
207,9.3659,2952.6320, , ,195.2635,153.4899
208,9.3919,3014.2310, , ,195.2635,153.5491
209,9.4179,3586.6480, , ,195.2635,155.2092
210,9.4439,3586.2060, , ,195.2635,155.0149
211,9.4699,3500.4470, , ,195.2635,154.5445
212,9.4959,3369.7800, , ,195.2635,153.9269
213,9.5219,2861.5140, , ,195.2635,152.0703
214,9.5479,2420.6010, , ,195.2635,150.4148
215,9.5739,1787.4230, , ,195.2635,148.0932
216,9.5999,1260.4330, , ,195.2635,146.0985
217,9.6259,868.2690, , ,195.2635,144.5433
218,9.6519,539.6698, , ,195.2635,143.1421
219,9.6779,355.6135, , ,195.2635,142.2361
220,9.7039,227.0581, , ,195.2635,141.5205
221,9.7299,-19.7398, , ,195.2635,140.3807
222,9.7559,-82.7067, , ,195.2635,139.8903
223,9.7819,-21.3955, , ,195.2635,139.8431
224,9.8079,-91.9554, , ,195.2635,139.3235
225,9.8339,-51.5471, , ,195.2635,139.2011
226,9.8599,-36.1648, , ,195.2635,138.9886
227,9.8859,115.9878, , ,195.2635,139.3136
228,9.9119,107.2970, , ,195.2635,139.0606
229,9.9379,162.2915, , ,195.2635,139.0364
230,9.9639,216.9786, , ,195.2635,139.0111
231,9.9899,356.6156, , ,195.2635,139.2911
232,10.0159,560.9116, , ,195.2635,139.8020
233,10.0419,920.4226, , ,195.2635,140.8630
234,10.0679,999.0806, , ,195.2635,140.9231
235,10.0939,1702.7360, , ,195.2635,143.1826
236,10.1199,2334.6500, , ,195.2635,145.1601
237,10.1459,2783.9250, , ,195.2635,146.4889
238,10.1719,3451.0270, , ,195.2635,148.5408
239,10.1979,3849.7150, , ,195.2635,149.6708
240,10.2239,4066.2560, , ,195.2635,150.1871
241,10.2499,3881.0000, , ,195.2635,149.3626
242,10.2759,3464.6250, , ,195.2635,147.7535
243,10.3019,2883.5860, , ,195.2635,145.5621
244,10.3279,2206.7510, , ,195.2635,143.0027
245,10.3539,1516.6240, , ,195.2635,140.3075
246,10.3799,980.0797, , ,195.2635,138.1167
247,10.4059,554.7916, , ,195.2635,136.2992
248,10.4319,312.9938, , ,195.2635,135.1378
249,10.4579,178.6844, , ,195.2635,134.3669
250,10.4839,49.3984, , ,195.2635,133.6104
251,10.5099,80.5966, , ,195.2635,133.4522
252,10.5359,0.7514, , ,195.2635,132.8766
253,10.5619,-21.5204, , ,195.2635,132.5160
254,10.5879,22.6664, , ,195.2635,132.4949
255,10.6139,-58.1041, , ,195.2635,132.0013
256,10.6399,-90.0371, , ,195.2635,131.6914
257,10.6659,-164.6289, , ,195.2635,131.2184
258,10.6919,-130.3989, , ,195.2635,131.1591
259,10.7179,-22.5670, , ,195.2635,131.3802
260,10.7439,51.3592, , ,195.2635,131.4721
261,10.7699,34.3918, , ,195.2635,131.2180
262,10.7959,-98.9124, , ,195.2635,130.5185
263,10.8219,-27.1247, , ,195.2635,130.8255
264,10.8479,46.1875, , ,195.2635,131.1376
265,10.8739,29.8897, , ,195.2635,131.1077
266,10.8999,18.8718, , ,195.2635,131.0979
267,10.9259,53.2441, , ,195.2635,131.2611
268,10.9519,-112.5497, , ,195.2635,130.6603
269,10.9779,-105.4976, , ,195.2635,130.7196
270,11.0039,53.8196, , ,195.2635,131.3597
271,11.0299,-40.9043, , ,195.2635,131.0309
272,11.0559,76.9373, , ,195.2635,131.5182
273,11.0819,169.9982, , ,195.2635,131.9099
274,11.1079,386.3744, , ,195.2635,132.7656
275,11.1339,581.7629, , ,195.2635,133.5373
276,11.1599,825.1884, , ,195.2635,134.4832
277,11.1859,1452.2790, , ,195.2635,136.8318
278,11.2119,2175.7570, , ,195.2635,139.4867
279,11.2379,3143.7700, , ,195.2635,142.9498
280,11.2639,3950.5580, , ,195.2635,145.7791
281,11.2899,4595.6780, , ,195.2635,148.0094
282,11.3159,4864.5180, , ,195.2635,148.9488
283,11.3419,4499.4330, , ,195.2635,147.7524
284,11.3679,3548.8350, , ,195.2635,144.5347
285,11.3939,2497.4380, , ,195.2635,140.8865
286,11.4199,1434.3180, , ,195.2635,137.0984
287,11.4459,791.4418, , ,195.2635,134.7710
288,11.4719,256.4539, , ,195.2635,132.8094
289,11.4979,-2.2768, , ,195.2635,131.8701
290,11.5239,-162.4034, , ,195.2635,131.2489
291,11.5499,-116.0805, , ,195.2635,131.4125
292,11.5759,59.6932, , ,195.2635,132.0670
293,11.6019,87.1418, , ,195.2635,132.1583
294,11.6279,-76.4811, , ,195.2635,131.5251
295,11.6539,-109.5452, , ,195.2635,131.3867
296,11.6799,-167.7207, , ,195.2635,131.1524
297,11.7059,-35.1550, , ,195.2635,131.6441
298,11.7319,103.5063, , ,195.2635,132.1571
299,11.7579,31.2374, , ,195.2635,131.9428
300,11.7839,9.6188, , ,195.2635,131.9202
301,11.8099,254.5987, , ,195.2635,132.9044
302,11.8359,414.6922, , ,195.2635,133.5640
303,11.8619,330.8341, , ,195.2635,133.3085
304,11.8879,588.3426, , ,195.2635,134.3292
305,11.9139,1030.7780, , ,195.2635,136.0236
306,11.9399,1404.9250, , ,195.2635,137.4490
307,11.9659,2308.7060, , ,195.2635,140.7540
308,11.9919,3123.5680, , ,195.2635,143.6277
309,12.0179,4529.8870, , ,195.2635,148.4506
310,12.0439,6017.6350, , ,195.2635,153.3874
311,12.0699,8046.6620, , ,195.2635,159.8721
312,12.0959,8813.5550, , ,195.2635,162.2601
313,12.1219,9570.3380, , ,195.2635,164.5828
314,12.1479,9697.0360, , ,195.2635,164.9744
315,12.1739,9734.9190, , ,195.2635,165.0963
316,12.1999,10009.9800, , ,195.2635,165.9344
317,12.2259,10162.3400, , ,195.2635,166.3571
318,12.2519,10830.2800, , ,195.2635,168.3175
319,12.2779,12121.6800, , ,195.2635,172.0764
320,12.3039,14254.6400, , ,195.2635,178.1330
321,12.3299,15945.3500, , ,195.2635,182.7846
322,12.3559,17622.9400, , ,195.2635,187.2857
323,12.3819,19105.0500, , ,195.2635,191.1705
324,12.4079,21097.8700, , ,195.2635,196.2833
325,12.4339,23605.4300, , ,195.2635,202.5409
326,12.4599,27643.6600, , ,195.2635,212.2132
327,12.4859,33622.6900, , ,195.2635,225.8027
328,12.5119,41558.5700, , ,195.2635,242.6853
329,12.5379,51757.8100, , ,195.2635,262.8094
330,12.5639,62011.0300, , ,195.2635,281.5944
331,12.5899,70452.5100, , ,195.2635,296.1592
332,12.6159,74283.0300, , ,195.2635,302.5132
333,12.6419,72149.4800, , ,195.2635,298.9215
334,12.6679,63665.9700, , ,195.2635,284.3307
335,12.6939,50600.9800, , ,195.2635,260.2928
336,12.7199,36977.1600, , ,195.2635,232.5982
337,12.7459,25852.4900, , ,195.2635,207.2455
338,12.7719,17953.9900, , ,195.2635,187.1512
339,12.7979,12596.1200, , ,195.2635,172.1659
340,12.8239,8977.9790, , ,195.2635,161.2339
341,12.8499,6567.2650, , ,195.2635,153.4896
342,12.8759,5093.7790, , ,195.2635,148.5226
343,12.9019,3869.8270, , ,195.2635,144.2513
344,12.9279,2857.7610, , ,195.2635,140.5526
345,12.9539,2185.6210, , ,195.2635,137.9912
346,12.9799,1743.6840, , ,195.2635,136.2289
347,13.0059,1424.7610, , ,195.2635,134.9002
348,13.0319,1172.9550, , ,195.2635,133.8093
349,13.0579,1109.9990, , ,195.2635,133.4191
350,13.0839,879.5426, , ,195.2635,132.3966
351,13.1099,657.1541, , ,195.2635,131.3969
352,13.1359,704.5384, , ,195.2635,131.4200
353,13.1619,628.0114, , ,195.2635,130.9128
354,13.1879,652.0981, , ,195.2635,130.7887
355,13.2139,926.0769, , ,195.2635,131.6174
356,13.2399,1221.4760, , ,195.2635,132.5217
357,13.2659,1620.1110, , ,195.2635,133.8062
358,13.2919,2120.5090, , ,195.2635,135.4546
359,13.3179,2605.3380, , ,195.2635,137.0264
360,13.3439,2803.7240, , ,195.2635,137.5430
361,13.3699,2783.8530, , ,195.2635,137.2650
362,13.3959,2772.7600, , ,195.2635,136.9627
363,13.4219,2384.4550, , ,195.2635,135.2725
364,13.4479,1794.6160, , ,195.2635,132.8044
365,13.4739,1265.8660, , ,195.2635,130.5238
366,13.4999,647.8854, , ,195.2635,127.8541
367,13.5259,319.2682, , ,195.2635,126.2785
368,13.5519,201.2827, , ,195.2635,125.5247
369,13.5779,201.1046, , ,195.2635,125.2377
370,13.6039,52.1159, , ,195.2635,124.3530
371,13.6299,14.7413, , ,195.2635,123.8571
372,13.6559,7.8420, , ,195.2635,123.4826
373,13.6819,43.1497, , ,195.2635,123.2782
374,13.7079,44.2746, , ,195.2635,122.9346
375,13.7339,-49.7639, , ,195.2635,122.2013
376,13.7599,49.4776, , ,195.2635,122.2566
377,13.7859,13.1721, , ,195.2635,121.7564
378,13.8119,-45.5550, , ,195.2635,121.1618
379,13.8379,-45.2400, , ,195.2635,120.8088
380,13.8639,18.4680, , ,195.2635,121.0345
381,13.8899,29.1278, , ,195.2635,121.0409
382,13.9159,-17.0489, , ,195.2635,120.8123
383,13.9419,37.9365, , ,195.2635,121.0020
384,13.9679,-84.1693, , ,195.2635,120.4586
385,13.9939,-76.0212, , ,195.2635,120.4546
386,14.0199,-16.9277, , ,195.2635,120.6619
387,14.0459,76.8409, , ,195.2635,121.0122
388,14.0719,22.2108, , ,195.2635,120.7485
389,14.0979,-9.4883, , ,195.2635,120.5610
390,14.1239,-125.3248, , ,195.2635,120.0232
391,14.1499,-201.7760, , ,195.2635,119.6476
392,14.1759,20.6491, , ,195.2635,120.5173
393,14.2019,2.1736, , ,195.2635,120.3844
394,14.2279,-9.3030, , ,195.2635,120.2804
395,14.2539,-34.6979, , ,195.2635,120.1183
396,14.2799,9.3863, , ,195.2635,120.2453
397,14.3059,4.5866, , ,195.2635,120.1690
398,14.3319,-2.8186, , ,195.2635,120.0902
399,14.3579,32.8945, , ,195.2635,120.1910
400,14.3839,-79.1985, , ,195.2635,119.6756
401,14.4099,75.8721, , ,195.2635,120.2739
402,14.4359,13.2514, , ,195.2635,119.9653
403,14.4619,51.5143, , ,195.2635,120.0768
404,14.4879,138.7360, , ,195.2635,120.3916
405,14.5139,434.5857, , ,195.2635,121.5667
406,14.5399,533.1628, , ,195.2635,121.9243
407,14.5659,985.9585, , ,195.2635,123.6628
408,14.5919,1229.6940, , ,195.2635,124.5408
409,14.6179,1772.2000, , ,195.2635,126.5981
410,14.6439,2724.1280, , ,195.2635,130.2043
411,14.6699,3528.7080, , ,195.2635,133.1612
412,14.6959,4710.9480, , ,195.2635,137.4348
413,14.7219,5536.5370, , ,195.2635,140.3142
414,14.7479,6159.5840, , ,195.2635,142.4264
415,14.7739,6017.9290, , ,195.2635,141.8372
416,14.7999,5364.5570, , ,195.2635,139.4224
417,14.8259,4449.3060, , ,195.2635,136.0056
418,14.8519,3416.5910, , ,195.2635,132.0567
419,14.8779,2382.5930, , ,195.2635,127.9810
420,14.9039,1680.2550, , ,195.2635,125.1038
421,14.9299,1153.1530, , ,195.2635,122.8740
422,14.9559,686.9192, , ,195.2635,120.8551
423,14.9819,420.1095, , ,195.2635,119.6383
424,15.0079,326.5448, , ,195.2635,119.1382
425,15.0339,272.7629, , ,195.2635,118.7434
426,15.0599,355.0366, , ,195.2635,118.9206
427,15.0859,150.7434, , ,195.2635,117.8883
428,15.1119,167.3558, , ,195.2635,117.7885
429,15.1379,164.0475, , ,195.2635,117.6038
430,15.1639,-14.5256, , ,195.2635,116.6702
431,15.1899,-179.8518, , ,195.2635,115.7862
432,15.2159,-79.5869, , ,195.2635,116.0455
433,15.2419,30.8635, , ,195.2635,116.3480
434,15.2679,100.7801, , ,195.2635,116.6765
435,15.2939,122.1180, , ,195.2635,116.7963
436,15.3199,34.3199, , ,195.2635,116.4482
437,15.3459,163.6405, , ,195.2635,117.0305
438,15.3719,275.3586, , ,195.2635,117.5350
439,15.3979,231.6731, , ,195.2635,117.3773
440,15.4239,365.0426, , ,195.2635,117.9721
441,15.4499,523.3132, , ,195.2635,118.6689
442,15.4759,650.7605, , ,195.2635,119.2325
443,15.5019,979.0443, , ,195.2635,120.5622
444,15.5279,1548.2700, , ,195.2635,122.8619
445,15.5539,2053.7500, , ,195.2635,124.8643
446,15.5799,2579.6940, , ,195.2635,126.9158
447,15.6059,2903.9020, , ,195.2635,128.1499
448,15.6319,2998.7550, , ,195.2635,128.4828
449,15.6579,2938.9040, , ,195.2635,128.2130
450,15.6839,2528.0320, , ,195.2635,126.5633
451,15.7099,1929.2110, , ,195.2635,124.1371
452,15.7359,1297.2780, , ,195.2635,121.5264
453,15.7619,990.4360, , ,195.2635,120.2181
454,15.7879,763.5079, , ,195.2635,119.2311
455,15.8139,445.3058, , ,195.2635,117.8492
456,15.8399,292.8265, , ,195.2635,117.1602
457,15.8659,121.1694, , ,195.2635,116.3849
458,15.8919,51.7979, , ,195.2635,116.0459
459,15.9179,39.4981, , ,195.2635,115.9522
460,15.9439,-5.6691, , ,195.2635,115.7166
461,15.9699,24.5554, , ,195.2635,115.7502
462,15.9959,-24.7173, , ,195.2635,115.4400
463,16.0219,-21.0629, , ,195.2635,115.3586
464,16.0479,27.2809, , ,195.2635,115.4708
465,16.0739,-12.1876, , ,195.2635,115.2024
466,16.0999,-7.5791, , ,195.2635,115.1250
467,16.1259,-32.2394, , ,195.2635,114.9202
468,16.1519,-37.1423, , ,195.2635,114.8011
469,16.1779,-35.1971, , ,195.2635,114.7118
470,16.2039,62.5590, , ,195.2635,115.1033
471,16.2299,37.6073, , ,195.2635,114.9611
472,16.2559,-77.8828, , ,195.2635,114.4237
473,16.2819,-103.0664, , ,195.2635,114.2796
474,16.3079,-16.6984, , ,195.2635,114.6229
475,16.3339,-21.5452, , ,195.2635,114.5678
476,16.3599,24.2360, , ,195.2635,114.7336
477,16.3859,-20.9264, , ,195.2635,114.5026
478,16.4119,-52.3573, , ,195.2635,114.3313
479,16.4379,66.2714, , ,195.2635,114.8039
480,16.4639,72.6831, , ,195.2635,114.7868
481,16.4899,129.7383, , ,195.2635,114.9902
482,16.5159,312.4309, , ,195.2635,115.7372
483,16.5419,207.8413, , ,195.2635,115.2396
484,16.5679,274.0488, , ,195.2635,115.4818
485,16.5939,292.8500, , ,195.2635,115.5185
486,16.6199,334.8015, , ,195.2635,115.6552
487,16.6459,244.6156, , ,195.2635,115.2199
488,16.6719,187.4289, , ,195.2635,114.9265
489,16.6979,193.3454, , ,195.2635,114.9073
490,16.7239,2.9906, , ,195.2635,114.0307
491,16.7499,-107.7387, , ,195.2635,113.4986
492,16.7759,-18.0737, , ,195.2635,113.8475
493,16.8019,88.7453, , ,195.2635,114.2705
494,16.8279,37.3378, , ,195.2635,114.0000
495,16.8539,40.1394, , ,195.2635,113.9670
496,16.8799,-81.9692, , ,195.2635,113.3844
497,16.9059,80.5972, , ,195.2635,114.0670
498,16.9319,-93.3243, , ,195.2635,113.2699
499,16.9579,56.7239, , ,195.2635,113.8982
500,16.9839,-42.2875, , ,195.2635,113.4306
501,17.0099,230.2562, , ,195.2635,114.5938
502,17.0359,110.6550, , ,195.2635,114.0387
503,17.0619,187.8828, , ,195.2635,114.3448
504,17.0879,206.4853, , ,195.2635,114.3942
505,17.1139,342.8085, , ,195.2635,114.9568
506,17.1399,578.4417, , ,195.2635,115.8740
507,17.1659,422.4265, , ,195.2635,115.0951
508,17.1919,733.2320, , ,195.2635,116.3347
509,17.2179,696.2029, , ,195.2635,116.0726
510,17.2439,802.5391, , ,195.2635,116.4271
511,17.2699,719.0914, , ,195.2635,115.9652
512,17.2959,616.7352, , ,195.2635,115.4195
513,17.3219,360.6594, , ,195.2635,114.2002
514,17.3479,357.7641, , ,195.2635,114.0828
515,17.3739,290.3435, , ,195.2635,113.6819
516,17.3999,340.5581, , ,195.2635,113.7975
517,17.4259,315.2147, , ,195.2635,113.5809
518,17.4519,39.3521, , ,195.2635,112.2536
519,17.4779,120.2136, , ,195.2635,112.5070
520,17.5039,12.4351, , ,195.2635,111.9203
521,17.5299,2.6633, , ,195.2635,111.7697
522,17.5559,-18.1274, , ,195.2635,111.5696
523,17.5819,117.8786, , ,195.2635,112.0709
524,17.6079,-97.3736, , ,195.2635,111.1102
525,17.6339,-63.5238, , ,195.2635,111.2662
526,17.6599,93.2071, , ,195.2635,111.9721
527,17.6859,2.6308, , ,195.2635,111.5707
528,17.7119,73.3182, , ,195.2635,111.8908
529,17.7379,70.2568, , ,195.2635,111.8809
530,17.7639,134.1923, , ,195.2635,112.1701
531,17.7899,156.4332, , ,195.2635,112.2729
532,17.8159,300.7611, , ,195.2635,112.9176
533,17.8419,407.4313, , ,195.2635,113.3927
534,17.8679,775.5477, , ,195.2635,115.0081
535,17.8939,1012.7720, , ,195.2635,116.0385
536,17.9199,1324.6380, , ,195.2635,117.3782
537,17.9459,1689.1540, , ,195.2635,118.9244
538,17.9719,1983.3990, , ,195.2635,120.1587
539,17.9979,2074.5910, , ,195.2635,120.5411
540,18.0239,2116.9280, , ,195.2635,120.7201
541,18.0499,1988.8520, , ,195.2635,120.1919
542,18.0759,1626.5490, , ,195.2635,118.6231
543,18.1019,1092.3600, , ,195.2635,116.2966
544,18.1279,831.5642, , ,195.2635,115.1162
545,18.1539,618.8238, , ,195.2635,114.1343
546,18.1799,295.3381, , ,195.2635,112.6534
547,18.2059,194.5372, , ,195.2635,112.1500
548,18.2319,130.9383, , ,195.2635,111.8108
549,18.2579,0.3529, , ,195.2635,111.1698
550,18.2839,-22.1909, , ,195.2635,111.0127
551,18.3099,49.2599, , ,195.2635,111.2062
552,18.3359,-54.2413, , ,195.2635,110.6113
553,18.3619,-122.0517, , ,195.2635,110.1754
554,18.3879,-156.9627, , ,195.2635,109.8875
555,18.4139,-165.4407, , ,195.2635,109.7194
556,18.4399,-77.7200, , ,195.2635,109.9892
557,18.4659,-101.8222, , ,195.2635,109.7500
558,18.4919,-52.4083, , ,195.2635,109.8455
559,18.5179,31.4118, , ,195.2635,110.0973
560,18.5439,8.9412, , ,195.2635,109.9548
561,18.5699,26.3514, , ,195.2635,109.9935
562,18.5959,38.1380, , ,195.2635,110.0067
563,18.6219,8.0811, , ,195.2635,109.8295
564,18.6479,-70.0363, , ,195.2635,109.4327
565,18.6739,-126.9846, , ,195.2635,109.1315
566,18.6999,-89.6970, , ,195.2635,109.2615
567,18.7259,-14.7086, , ,195.2635,109.5636
568,18.7519,40.2257, , ,195.2635,109.7735
569,18.7779,3.4996, , ,195.2635,109.6061
570,18.8039,24.1089, , ,195.2635,109.7001
571,18.8299,88.0319, , ,195.2635,109.9911
572,18.8559,106.9159, , ,195.2635,110.0769
573,18.8819,30.8225, , ,195.2635,109.7307
574,18.9079,37.5273, , ,195.2635,109.7612
575,18.9339,97.5287, , ,195.2635,110.0342
576,18.9599,260.0102, , ,195.2635,110.7701
577,18.9859,275.3837, , ,195.2635,110.8394
578,19.0119,272.8730, , ,195.2635,110.8281
579,19.0379,344.8780, , ,195.2635,111.1525
580,19.0639,317.6313, , ,195.2635,111.0299
581,19.0899,440.8207, , ,195.2635,111.5832
582,19.1159,368.8445, , ,195.2635,111.2603
583,19.1419,146.1469, , ,195.2635,110.2549
584,19.1679,114.4750, , ,195.2635,110.1112
585,19.1939,-9.6893, , ,195.2635,109.5459
586,19.2199,-27.6862, , ,195.2635,109.4638
587,19.2459,74.5047, , ,195.2635,109.8891
588,19.2719,-62.8639, , ,195.2635,109.2216
589,19.2979,-85.4587, , ,195.2635,109.0774
590,19.3239,-82.5167, , ,195.2635,109.0501
591,19.3499,-84.6091, , ,195.2635,108.9998
592,19.3759,-30.2875, , ,195.2635,109.2080
593,19.4019,55.4098, , ,195.2635,109.5591
594,19.4279,-5.8365, , ,195.2635,109.2385
595,19.4539,-103.3561, , ,195.2635,108.7504
596,19.4799,37.2069, , ,195.2635,109.3866
597,19.5059,102.2712, , ,195.2635,109.6755
598,19.5319,-42.1243, , ,195.2635,109.0071
599,19.5579,-55.4915, , ,195.2635,108.9376
600,19.5839,55.1866, , ,195.2635,109.4363
601,19.6099,32.7437, , ,195.2635,109.3256
602,19.6359,1.0363, , ,195.2635,109.1723
603,19.6619,21.5908, , ,195.2635,109.2583
604,19.6879,1.3911, , ,195.2635,109.1576
605,19.7139,-3.5337, , ,195.2635,109.0668
606,19.7399,0.9405, , ,195.2635,109.0191
607,19.7659,-94.2799, , ,195.2635,108.5129
608,19.7919,12.4671, , ,195.2635,108.9354
609,19.8179,55.1511, , ,195.2635,109.0629
610,19.8439,155.6132, , ,195.2635,109.4545
611,19.8699,-82.0156, , ,195.2635,108.2948
612,19.8959,-17.1528, , ,195.2635,108.5253
613,19.9219,-8.6682, , ,195.2635,108.4958
614,19.9479,-23.1028, , ,195.2635,108.5089
615,19.9739,145.2433, , ,195.2635,109.3609
616,19.9999,121.9094, , ,195.2635,109.3332
617,20.0259,86.4035, , ,195.2635,109.2498
618,20.0519,193.3701, , ,195.2635,109.8169
619,20.0779,110.0684, , ,195.2635,109.5159
620,20.1039,182.8209, , ,195.2635,109.9262
621,20.1299,268.8148, , ,195.2635,110.3949
622,20.1559,249.9847, , ,195.2635,110.3879
623,20.1819,344.3426, , ,195.2635,110.8924
624,20.2079,280.2653, , ,195.2635,110.6812
625,20.2339,354.9816, , ,195.2635,111.0960
626,20.2599,119.9974, , ,195.2635,110.1118
627,20.2859,187.6862, , ,195.2635,110.4969
628,20.3119,267.8564, , ,195.2635,110.9370
629,20.3379,231.5390, , ,195.2635,110.8512
630,20.3639,195.0060, , ,195.2635,110.7643
631,20.3899,145.5941, , ,195.2635,110.6191
632,20.4159,75.3981, , ,195.2635,110.3059
633,20.4419,69.1265, , ,195.2635,110.2820
634,20.4679,6.4369, , ,195.2635,110.0020
635,20.4939,-91.8181, , ,195.2635,109.5590
636,20.5199,-62.9140, , ,195.2635,109.6954
637,20.5459,-19.8430, , ,195.2635,109.8961
638,20.5719,-96.8930, , ,195.2635,109.5496
639,20.5979,-69.8306, , ,195.2635,109.6776
640,20.6239,46.8198, , ,195.2635,110.2126
641,20.6499,101.6813, , ,195.2635,110.5206
642,20.6759,0.0011, , ,195.2635,110.1191
643,20.7019,89.3352, , ,195.2635,110.5833
644,20.7279,211.0225, , ,195.2635,111.1911
645,20.7539,428.1129, , ,195.2635,112.2215
646,20.7799,1079.9990, , ,195.2635,115.1463
647,20.8059,1191.8630, , ,195.2635,115.6877
648,20.8319,914.0968, , ,195.2635,114.5381
649,20.8579,596.9168, , ,195.2635,113.2030
650,20.8839,319.0963, , ,195.2635,112.0277
651,20.9099,108.1126, , ,195.2635,111.1411
652,20.9359,54.7626, , ,195.2635,110.9599
653,20.9619,86.1472, , ,195.2635,111.1602
654,20.9879,25.0008, , ,195.2635,110.9439
655,21.0139,-2.8137, , ,195.2635,110.8776
656,21.0399,-65.4765, , ,195.2635,110.6540
657,21.0659,-71.7939, , ,195.2635,110.6847
658,21.0919,18.3238, , ,195.2635,111.1500
659,21.1179,60.2205, , ,195.2635,111.4818
660,21.1439,137.3467, , ,195.2635,111.9700
661,21.1699,279.3755, , ,195.2635,112.7443
662,21.1959,373.0719, , ,195.2635,113.3003
663,21.2219,430.2774, , ,195.2635,113.6931
664,21.2479,724.3158, , ,195.2635,115.1179
665,21.2739,1171.9440, , ,195.2635,117.1825
666,21.2999,1578.9560, , ,195.2635,119.0408
667,21.3259,1959.0890, , ,195.2635,120.7594
668,21.3519,2357.4030, , ,195.2635,122.4559
669,21.3779,2558.2500, , ,195.2635,123.3313
670,21.4039,2536.7410, , ,195.2635,123.3021
671,21.4299,2322.8440, , ,195.2635,122.4901
672,21.4559,1915.0520, , ,195.2635,120.8732
673,21.4819,1430.1740, , ,195.2635,118.9108
674,21.5079,991.6766, , ,195.2635,117.1135
675,21.5339,798.5609, , ,195.2635,116.3476
676,21.5599,642.6664, , ,195.2635,115.7376
677,21.5859,440.9261, , ,195.2635,114.8628
678,21.6119,426.3899, , ,195.2635,114.7995
679,21.6379,357.5017, , ,195.2635,114.4991
680,21.6639,435.5728, , ,195.2635,114.8396
681,21.6899,663.8570, , ,195.2635,115.8293
682,21.7159,806.5927, , ,195.2635,116.4438
683,21.7419,797.8619, , ,195.2635,116.4063
684,21.7679,921.9117, , ,195.2635,116.9380
685,21.7939,1144.1540, , ,195.2635,117.8845
686,21.8199,1484.2760, , ,195.2635,119.3184
687,21.8459,1552.2180, , ,195.2635,119.6028
688,21.8719,1745.0250, , ,195.2635,120.4061
689,21.8979,1835.1510, , ,195.2635,120.7798
690,21.9239,1549.9790, , ,195.2635,119.5935
691,21.9499,1339.6680, , ,195.2635,118.7110
692,21.9759,999.4689, , ,195.2635,117.2694
693,22.0019,835.5113, , ,195.2635,116.5683
694,22.0279,522.1497, , ,195.2635,115.2163
695,22.0539,285.6887, , ,195.2635,114.1230
696,22.0799,208.4628, , ,195.2635,113.7213
697,22.1059,-125.9395, , ,195.2635,112.1777
698,22.1319,-45.7220, , ,195.2635,112.4711
699,22.1579,-65.1613, , ,195.2635,112.3211
700,22.1839,15.8142, , ,195.2635,112.6175
701,22.2099,-61.7943, , ,195.2635,112.2087
702,22.2359,-58.3638, , ,195.2635,112.1603
703,22.2619,69.3836, , ,195.2635,112.6649
704,22.2879,-0.5700, , ,195.2635,112.3016
705,22.3139,-53.0614, , ,195.2635,112.0151
706,22.3399,57.8183, , ,195.2635,112.4566
707,22.3659,-122.4275, , ,195.2635,111.5996
708,22.3919,-66.2957, , ,195.2635,111.7981
709,22.4179,-23.5470, , ,195.2635,111.9365
710,22.4439,-119.9973, , ,195.2635,111.4520
711,22.4699,-60.5345, , ,195.2635,111.6658
712,22.4959,42.5702, , ,195.2635,112.0739
713,22.5219,67.4579, , ,195.2635,112.2953
714,22.5479,-38.0513, , ,195.2635,111.9353
715,22.5739,23.3586, , ,195.2635,112.3196
716,22.5999,34.7905, , ,195.2635,112.4807
717,22.6259,203.6576, , ,195.2635,113.3382
718,22.6519,87.8307, , ,195.2635,112.9358
719,22.6779,322.9331, , ,195.2635,114.0806
720,22.7039,427.5964, , ,195.2635,114.6465
721,22.7299,380.4715, , ,195.2635,114.5490
722,22.7559,365.2356, , ,195.2635,114.5906
723,22.7819,427.3490, , ,195.2635,114.9691
724,22.8079,426.0775, , ,195.2635,115.0713
725,22.8339,234.2263, , ,195.2635,114.3431
726,22.8599,221.1152, , ,195.2635,114.3941
727,22.8859,281.4413, , ,195.2635,114.7654
728,22.9119,159.9908, , ,195.2635,114.3435
729,22.9379,14.0370, , ,195.2635,113.8124
730,22.9639,-12.3876, , ,195.2635,113.8052
731,22.9899,16.9458, , ,195.2635,114.0275
732,23.0159,-120.4465, , ,195.2635,113.5175
733,23.0419,-155.1109, , ,195.2635,113.4588
734,23.0679,-12.2251, , ,195.2635,114.1802
735,23.0939,25.2601, , ,195.2635,114.4374
736,23.1199,14.1684, , ,195.2635,114.4822
737,23.1459,71.5285, , ,195.2635,114.8254
738,23.1719,106.5210, , ,195.2635,115.0704
739,23.1979,152.4931, , ,195.2635,115.3624
740,23.2239,97.9726, , ,195.2635,115.2185
741,23.2499,-42.2809, , ,195.2635,114.7013
742,23.2759,-112.6672, , ,195.2635,114.4873
743,23.3019,-115.2291, , ,195.2635,114.5692
744,23.3279,29.8638, , ,195.2635,115.2932
745,23.3539,-104.2533, , ,195.2635,114.8031
746,23.3799,-161.7270, , ,195.2635,114.6456
747,23.4059,-45.2154, , ,195.2635,115.2452
748,23.4319,59.3183, , ,195.2635,115.7900
749,23.4579,12.5785, , ,195.2635,116.0071
750,23.4839,21.1866, , ,195.2635,116.4617
751,23.5099,114.6985, , ,195.2635,117.2770
752,23.5359,133.1401, , ,195.2635,117.7685
753,23.5619,224.9160, , ,195.2635,118.5675
754,23.5879,224.2537, , ,195.2635,118.9734
755,23.6139,95.0508, , ,195.2635,118.8382
756,23.6399,67.9848, , ,195.2635,119.1324
757,23.6659,88.6488, , ,195.2635,119.6255
758,23.6919,78.8210, , ,195.2635,119.9383
759,23.7179,94.5140, , ,195.2635,120.3563
760,23.7439,151.0906, , ,195.2635,120.9421
761,23.7699,353.2482, , ,195.2635,122.1225
762,23.7959,759.8898, , ,195.2635,124.1181
763,23.8219,1167.5910, , ,195.2635,126.0864
764,23.8479,1502.9630, , ,195.2635,127.7416
765,23.8739,1705.4740, , ,195.2635,128.8611
766,23.8999,1803.9670, , ,195.2635,129.5702
767,23.9259,1855.0300, , ,195.2635,130.0435
768,23.9519,1846.5920, , ,195.2635,130.2868
769,23.9779,1882.9920, , ,195.2635,130.7014
770,24.0039,2160.1600, , ,195.2635,132.0296
771,24.0299,2530.6300, , ,195.2635,133.6940
772,24.0559,2659.5830, , ,195.2635,134.4427
773,24.0819,2618.8060, , ,195.2635,134.5580
774,24.1079,2322.5120, , ,195.2635,133.7212
775,24.1339,1947.3390, , ,195.2635,132.5820
776,24.1599,1483.9170, , ,195.2635,131.0428
777,24.1859,1060.4780, , ,195.2635,129.6395
778,24.2119,481.6590, , ,195.2635,127.6135
779,24.2379,56.9832, , ,195.2635,126.1672
780,24.2639,-174.5936, , ,195.2635,125.4760
781,24.2899,-10.7151, , ,195.2635,126.3556
782,24.3159,26.5128, , ,195.2635,126.7304
783,24.3419,61.2073, , ,195.2635,127.0942
784,24.3679,227.2249, , ,195.2635,127.9710
785,24.3939,283.5380, , ,195.2635,128.3578
786,24.4199,734.2556, , ,195.2635,130.2663
787,24.4459,1139.1460, , ,195.2635,131.9736
788,24.4719,1750.4420, , ,195.2635,134.4291
789,24.4979,2186.0560, , ,195.2635,136.1970
790,24.5239,2325.5300, , ,195.2635,136.8647
791,24.5499,2814.2050, , ,195.2635,138.7929
792,24.5759,3031.4860, , ,195.2635,139.7269
793,24.6019,3402.8040, , ,195.2635,141.2012
794,24.6279,3494.4810, , ,195.2635,141.6244
795,24.6539,3852.4250, , ,195.2635,142.9806
796,24.6799,4229.0750, , ,195.2635,144.3888
797,24.7059,4858.6480, , ,195.2635,146.6483
798,24.7319,4836.2710, , ,195.2635,146.6676
799,24.7579,4991.0570, , ,195.2635,147.2895
800,24.7839,4992.1570, , ,195.2635,147.3883
801,24.8099,4657.1050, , ,195.2635,146.3430
802,24.8359,4517.5380, , ,195.2635,145.9615
803,24.8619,4259.8690, , ,195.2635,145.1727
804,24.8879,4459.7560, , ,195.2635,145.9555
805,24.9139,4489.3280, , ,195.2635,146.1527
806,24.9399,4690.9320, , ,195.2635,146.9362
807,24.9659,4951.4600, , ,195.2635,147.9149
808,24.9919,5323.5770, , ,195.2635,149.2614
809,25.0179,6097.6390, , ,195.2635,151.9245
810,25.0439,6669.4210, , ,195.2635,153.8858
811,25.0699,8170.6600, , ,195.2635,158.7769
812,25.0959,9950.5530, , ,195.2635,164.3266
813,25.1219,12031.3900, , ,195.2635,170.5792
814,25.1479,14488.8300, , ,195.2635,177.6736
815,25.1739,16594.4200, , ,195.2635,183.5394
816,25.1999,18251.8900, , ,195.2635,188.0356
817,25.2259,19089.8100, , ,195.2635,190.2854
818,25.2519,18516.5100, , ,195.2635,188.8079
819,25.2779,17744.7000, , ,195.2635,186.7882
820,25.3039,16865.1200, , ,195.2635,184.4545
821,25.3299,16225.1000, , ,195.2635,182.7069
822,25.3559,16045.3100, , ,195.2635,182.2097
823,25.3819,15799.0800, , ,195.2635,181.5283
824,25.4079,15084.2700, , ,195.2635,179.5441
825,25.4339,14037.2200, , ,195.2635,176.5995
826,25.4599,12243.9500, , ,195.2635,171.4423
827,25.4859,10338.8300, , ,195.2635,165.7882
828,25.5119,7975.5840, , ,195.2635,158.4955
829,25.5379,5821.7190, , ,195.2635,151.5431
830,25.5639,4093.9850, , ,195.2635,145.6766
831,25.5899,2657.6970, , ,195.2635,140.6039
832,25.6159,1706.8500, , ,195.2635,137.1229
833,25.6419,1001.5170, , ,195.2635,134.4672
834,25.6679,523.5423, , ,195.2635,132.6180
835,25.6939,201.5824, , ,195.2635,131.3379
836,25.7199,6.1688, , ,195.2635,130.5309
837,25.7459,-48.8567, , ,195.2635,130.2589
838,25.7719,18.9415, , ,195.2635,130.4578
839,25.7979,269.3877, , ,195.2635,131.3037
840,25.8239,300.2752, , ,195.2635,131.3107
841,25.8499,348.3096, , ,195.2635,131.3831
842,25.8759,393.0812, , ,195.2635,131.4430
843,25.9019,326.3992, , ,195.2635,131.0783
844,25.9279,285.9372, , ,195.2635,130.8130
845,25.9539,207.1961, , ,195.2635,130.4004
846,25.9799,136.7976, , ,195.2635,130.0186
847,26.0059,84.5225, , ,195.2635,129.7055
848,26.0319,-51.0382, , ,195.2635,129.0214
849,26.0579,-132.9974, , ,195.2635,128.5423
850,26.0839,-205.0596, , ,195.2635,128.1000
851,26.1099,-309.0815, , ,195.2635,127.5309
852,26.1359,-336.1637, , ,195.2635,127.2620
853,26.1619,-290.0768, , ,195.2635,127.2802
854,26.1879,-298.7260, , ,195.2635,127.0833
855,26.2139,-191.1776, , ,195.2635,127.3431
856,26.2399,28.1753, , ,195.2635,128.0397
857,26.2659,214.5136, , ,195.2635,128.9223
858,26.2919,557.0145, , ,195.2635,130.3990
859,26.3179,1031.7200, , ,195.2635,132.3595
860,26.3439,1693.5990, , ,195.2635,134.9865
861,26.3699,2339.2350, , ,195.2635,137.5044
862,26.3959,2868.0440, , ,195.2635,139.5589
863,26.4219,3611.3710, , ,195.2635,142.3393
864,26.4479,4170.0510, , ,195.2635,144.4285
865,26.4739,4144.4680, , ,195.2635,144.4799
866,26.4999,3844.9880, , ,195.2635,143.5304
867,26.5259,3320.9680, , ,195.2635,141.7849
868,26.5519,2681.3440, , ,195.2635,139.6043
869,26.5779,2078.7400, , ,195.2635,137.5237
870,26.6039,1346.1000, , ,195.2635,134.9301
871,26.6299,859.5463, , ,195.2635,133.2126
872,26.6559,500.4689, , ,195.2635,131.9565
873,26.6819,391.9484, , ,195.2635,131.6435
874,26.7079,308.3383, , ,195.2635,131.4245
875,26.7339,284.3501, , ,195.2635,131.3737
876,26.7599,510.7300, , ,195.2635,132.2727
877,26.7859,566.0672, , ,195.2635,132.5218
878,26.8119,411.0827, , ,195.2635,131.9760
879,26.8379,483.4758, , ,195.2635,132.2902
880,26.8639,611.9609, , ,195.2635,132.8149
881,26.8899,606.5195, , ,195.2635,132.8345
882,26.9159,471.8178, , ,195.2635,132.3666
883,26.9419,492.0937, , ,195.2635,132.4833
884,26.9679,293.4921, , ,195.2635,131.7117
885,26.9939,298.2457, , ,195.2635,131.7098
886,27.0199,295.9805, , ,195.2635,131.6813
887,27.0459,311.5531, , ,195.2635,131.7205
888,27.0719,340.8237, , ,195.2635,131.8116
889,27.0979,616.2439, , ,195.2635,132.8325
890,27.1239,794.2082, , ,195.2635,133.4810
891,27.1499,879.2714, , ,195.2635,133.7796
892,27.1759,1418.3450, , ,195.2635,135.7601
893,27.2019,1565.5940, , ,195.2635,136.2241
894,27.2279,2120.4530, , ,195.2635,138.1694
895,27.2539,2712.2620, , ,195.2635,140.2196
896,27.2799,3353.9490, , ,195.2635,142.4154
897,27.3059,4326.0800, , ,195.2635,145.7162
898,27.3319,5856.7200, , ,195.2635,150.8071
899,27.3579,7620.2550, , ,195.2635,156.4777
900,27.3839,10343.6000, , ,195.2635,164.8864
901,27.4099,13793.8500, , ,195.2635,174.9764
902,27.4359,18597.4800, , ,195.2635,188.1470
903,27.4619,24425.4900, , ,195.2635,202.9932
904,27.4879,31643.0600, , ,195.2635,220.0062
905,27.5139,39792.5800, , ,195.2635,237.7629
906,27.5399,48386.2900, , ,195.2635,255.1545
907,27.5659,55015.9100, , ,195.2635,267.7917
908,27.5919,58604.2300, , ,195.2635,274.3713
909,27.6179,59489.9900, , ,195.2635,275.9426
910,27.6439,58290.9200, , ,195.2635,273.7228
911,27.6699,53490.2400, , ,195.2635,264.7388
912,27.6959,46171.3500, , ,195.2635,250.4613
913,27.7219,38333.9100, , ,195.2635,234.2147
914,27.7479,30736.9100, , ,195.2635,217.3078
915,27.7739,23958.7600, , ,195.2635,201.0165
916,27.7999,18393.2300, , ,195.2635,186.5615
917,27.8259,14347.9900, , ,195.2635,175.2800
918,27.8519,11393.9300, , ,195.2635,166.5297
919,27.8779,9689.4790, , ,195.2635,161.2167
920,27.9039,8628.1450, , ,195.2635,157.7240
921,27.9299,7359.2210, , ,195.2635,153.4773
922,27.9559,6553.3030, , ,195.2635,150.6544
923,27.9819,5312.9220, , ,195.2635,146.3002
924,28.0079,4330.6370, , ,195.2635,142.7194
925,28.0339,3998.1930, , ,195.2635,141.3639
926,28.0599,3491.9580, , ,195.2635,139.3732
927,28.0859,3059.5400, , ,195.2635,137.6221
928,28.1119,3110.9220, , ,195.2635,137.6175
929,28.1379,2976.2570, , ,195.2635,136.8801
930,28.1639,2805.6910, , ,195.2635,136.0068
931,28.1899,2551.5240, , ,195.2635,134.8182
932,28.2159,2204.7610, , ,195.2635,133.2720
933,28.2419,1761.8920, , ,195.2635,131.3423
934,28.2679,1449.9600, , ,195.2635,129.8889
935,28.2939,1263.7670, , ,195.2635,128.9077
936,28.3199,926.5303, , ,195.2635,127.3272
937,28.3459,689.1312, , ,195.2635,126.1232
938,28.3719,496.2682, , ,195.2635,125.0306
939,28.3979,352.0803, , ,195.2635,124.1246
940,28.4239,388.4911, , ,195.2635,123.9426
941,28.4499,445.5756, , ,195.2635,123.8439
942,28.4759,246.9080, , ,195.2635,122.7074
943,28.5019,190.2470, , ,195.2635,122.1429
944,28.5279,110.9928, , ,195.2635,121.4829
945,28.5539,-24.3247, , ,195.2635,120.5870
946,28.5799,3.8096, , ,195.2635,120.3653
947,28.6059,8.6439, , ,195.2635,120.2842
948,28.6319,67.8193, , ,195.2635,120.4289
949,28.6579,278.7544, , ,195.2635,121.2011
950,28.6839,442.4616, , ,195.2635,121.7746
951,28.7099,665.2545, , ,195.2635,122.5867
952,28.7359,909.3568, , ,195.2635,123.4797
953,28.7619,1193.2860, , ,195.2635,124.5264
954,28.7879,1644.2870, , ,195.2635,126.2278
955,28.8139,2308.2050, , ,195.2635,128.7363
956,28.8399,3088.0470, , ,195.2635,131.5702
957,28.8659,4010.3880, , ,195.2635,134.8736
958,28.8919,4738.1170, , ,195.2635,137.3916
959,28.9179,5340.1540, , ,195.2635,139.4142
960,28.9439,5701.9170, , ,195.2635,140.5557
961,28.9699,5558.2750, , ,195.2635,139.8932
962,28.9959,5260.4170, , ,195.2635,138.6726
963,29.0219,4604.6070, , ,195.2635,136.1327
964,29.0479,3744.3360, , ,195.2635,132.7767
965,29.0739,2989.0480, , ,195.2635,129.7390
966,29.0999,2354.1490, , ,195.2635,127.1029
967,29.1259,1790.4920, , ,195.2635,124.6969
968,29.1519,1188.1040, , ,195.2635,122.0851
969,29.1779,813.8491, , ,195.2635,120.3675
970,29.2039,544.0863, , ,195.2635,119.0647
971,29.2299,331.1364, , ,195.2635,117.9885
972,29.2559,315.3836, , ,195.2635,117.7428
973,29.2819,42.2527, , ,195.2635,116.3962
974,29.3079,-59.5604, , ,195.2635,115.6991
975,29.3339,-97.6489, , ,195.2635,115.2745
976,29.3599,-115.0934, , ,195.2635,114.9382
977,29.3859,-159.7545, , ,195.2635,114.4821
978,29.4119,-130.8559, , ,195.2635,114.3463
979,29.4379,-27.4748, , ,195.2635,114.5359
980,29.4639,-154.0136, , ,195.2635,113.7187
981,29.4899,-62.9168, , ,195.2635,113.8555
982,29.5159,-72.0048, , ,195.2635,113.5517
983,29.5419,185.9758, , ,195.2635,114.4896
984,29.5679,56.7372, , ,195.2635,113.7300
985,29.5939,117.0510, , ,195.2635,113.8012
986,29.6199,152.8000, , ,195.2635,113.7645
987,29.6459,204.1892, , ,195.2635,113.7965
988,29.6719,238.9653, , ,195.2635,113.7554
989,29.6979,158.9600, , ,195.2635,113.2086
990,29.7239,350.8659, , ,195.2635,113.8595
991,29.7499,391.9307, , ,195.2635,113.8461
992,29.7759,482.4086, , ,195.2635,114.0495
993,29.8019,414.8369, , ,195.2635,113.5589
994,29.8279,338.1394, , ,195.2635,113.0257
995,29.8539,199.7901, , ,195.2635,112.2156
996,29.8799,108.0589, , ,195.2635,111.6087
997,29.9059,113.3724, , ,195.2635,111.4348
998,29.9319,36.7866, , ,195.2635,110.8919
999,29.9579,-36.9381, , ,195.2635,110.3593
1000,29.9839,27.7484, , ,195.2635,110.4525
1001,30.0099,1.9000, , ,195.2635,110.1406
1002,30.0359,-11.6341, , ,195.2635,109.8839
1003,30.0619,-127.4578, , ,195.2635,109.1591
1004,30.0879,-180.9890, , ,195.2635,108.7163
1005,30.1139,-53.2365, , ,195.2635,109.1056
1006,30.1399,102.2470, , ,195.2635,109.6202
1007,30.1659,68.6396, , ,195.2635,109.2704
1008,30.1919,159.5484, , ,195.2635,109.4897
1009,30.2179,148.3481, , ,195.2635,109.2422
1010,30.2439,197.4416, , ,195.2635,109.2703
1011,30.2699,255.4430, , ,195.2635,109.3392
1012,30.2959,-10.3860, , ,195.2635,107.9179
1013,30.3219,136.3864, , ,195.2635,108.3979
1014,30.3479,141.8337, , ,195.2635,108.2248
1015,30.3739,122.6969, , ,195.2635,107.9376
1016,30.3999,120.2337, , ,195.2635,107.7271
1017,30.4259,169.4763, , ,195.2635,107.7563
1018,30.4519,148.9994, , ,195.2635,107.4616
1019,30.4779,173.4761, , ,195.2635,107.2978
1020,30.5039,93.8360, , ,195.2635,106.6466
1021,30.5299,157.5228, , ,195.2635,106.6655
1022,30.5559,118.6951, , ,195.2635,106.2028
1023,30.5819,14.8147, , ,195.2635,105.4300
1024,30.6079,101.8419, , ,195.2635,105.5597
1025,30.6339,-78.7887, , ,195.2635,104.4153
1026,30.6599,-62.7573, , ,195.2635,104.2061
1027,30.6859,69.7668, , ,195.2635,104.5551
1028,30.7119,11.0691, , ,195.2635,104.1322
1029,30.7379,-26.0020, , ,195.2635,103.8118
1030,30.7639,7.4413, , ,195.2635,103.8305
1031,30.7899,11.2082, , ,195.2635,103.7062
1032,30.8159,-12.5767, , ,195.2635,103.4488
1033,30.8419,-115.9989, , ,195.2635,102.8040
1034,30.8679,-9.4762, , ,195.2635,103.1777
1035,30.8939,-59.3477, , ,195.2635,102.7921
1036,30.9199,-64.4325, , ,195.2635,102.6234
1037,30.9459,87.9825, , ,195.2635,103.3595
1038,30.9719,108.6044, , ,195.2635,103.4553
1039,30.9979,144.6956, , ,195.2635,103.6257
1040,31.0239,144.5459, , ,195.2635,103.6211
1041,31.0499,153.4356, , ,195.2635,103.6601
1042,31.0759,28.5587, , ,195.2635,103.0521
1043,31.1019,33.9170, , ,195.2635,103.0741
1044,31.1279,57.2401, , ,195.2635,103.1833
1045,31.1539,66.6911, , ,195.2635,103.2252
1046,31.1799,69.7543, , ,195.2635,103.2361
1047,31.2059,70.8179, , ,195.2635,103.2374
1048,31.2319,124.6152, , ,195.2635,103.4937
1049,31.2579,95.9271, , ,195.2635,103.3511
1050,31.2839,127.8447, , ,195.2635,103.5015
1051,31.3099,199.6009, , ,195.2635,103.8437
1052,31.3359,272.6546, , ,195.2635,104.1910
1053,31.3619,299.1903, , ,195.2635,104.3144
1054,31.3879,364.5425, , ,195.2635,104.6233
1055,31.4139,402.5559, , ,195.2635,104.7410
1056,31.4399,415.6618, , ,195.2635,104.7396
1057,31.4659,519.7640, , ,195.2635,105.1718
1058,31.4919,574.7297, , ,195.2635,105.3692
1059,31.5179,553.1993, , ,195.2635,105.2034
1060,31.5439,536.5966, , ,195.2635,105.0608
1061,31.5699,534.6349, , ,195.2635,104.9877
1062,31.5959,514.4429, , ,195.2635,104.8276
1063,31.6219,450.8134, , ,195.2635,104.4596
1064,31.6479,417.9374, , ,195.2635,104.1876
1065,31.6739,415.3787, , ,195.2635,104.0606
1066,31.6999,275.9520, , ,195.2635,103.2729
1067,31.7259,96.9795, , ,195.2635,102.2860
1068,31.7519,62.9622, , ,195.2635,102.0025
1069,31.7779,39.5769, , ,195.2635,101.7705
1070,31.8039,-26.1802, , ,195.2635,101.3292
1071,31.8299,-58.0867, , ,195.2635,101.0535
1072,31.8559,23.8449, , ,195.2635,101.3402
1073,31.8819,35.6498, , ,195.2635,101.1988
1074,31.9079,77.6234, , ,195.2635,101.2064
1075,31.9339,-23.2262, , ,195.2635,100.5059
1076,31.9599,28.9161, , ,195.2635,100.5641
1077,31.9859,23.6194, , ,195.2635,100.3364
1078,32.0119,28.8232, , ,195.2635,100.1607
1079,32.0379,3.6029, , ,195.2635,99.8323
1080,32.0639,41.9493, , ,195.2635,99.8218
1081,32.0899,2.6651, , ,195.2635,99.4217
1082,32.1159,-13.4363, , ,195.2635,99.0797
1083,32.1419,-46.4882, , ,195.2635,98.6507
1084,32.1679,-62.5175, , ,195.2635,98.3064
1085,32.1939,-58.3100, , ,195.2635,98.0642
1086,32.2199,-3.8960, , ,195.2635,98.0776
1087,32.2459,-36.0846, , ,195.2635,97.6486
1088,32.2719,25.1784, , ,195.2635,97.6972
1089,32.2979,-57.5694, , ,195.2635,97.0062
1090,32.3239,57.7358, , ,195.2635,97.3331
1091,32.3499,-47.7532, , ,195.2635,96.6622
1092,32.3759,19.1486, , ,195.2635,96.8804
1093,32.4019,-32.4070, , ,195.2635,96.4862
1094,32.4279,31.0004, , ,195.2635,96.6868
1095,32.4539,61.1802, , ,195.2635,96.7153
1096,32.4799,75.5280, , ,195.2635,96.6619
1097,32.5059,-38.6443, , ,195.2635,95.9411
1098,32.5319,-63.1695, , ,195.2635,95.6844
1099,32.5579,81.6029, , ,195.2635,96.3099
1100,32.5839,-39.4114, , ,195.2635,95.7092
1101,32.6099,9.6268, , ,195.2635,95.9946
1102,32.6359,118.0456, , ,195.2635,96.5870
1103,32.6619,125.1631, , ,195.2635,96.6531
1104,32.6879,2.2603, , ,195.2635,96.0447
1105,32.7139,27.0674, , ,195.2635,96.2033
1106,32.7399,104.7155, , ,195.2635,96.6353
1107,32.7659,11.9563, , ,195.2635,96.1836
1108,32.7919,142.0442, , ,195.2635,96.8868
1109,32.8179,95.6364, , ,195.2635,96.6248
1110,32.8439,91.8349, , ,195.2635,96.5830
1111,32.8699,200.4601, , ,195.2635,97.1217
1112,32.8959,89.8647, , ,195.2635,96.5285
1113,32.9219,97.9255, , ,195.2635,96.5481
1114,32.9479,201.7513, , ,195.2635,97.0623
1115,32.9739,176.3244, , ,195.2635,96.9091
1116,32.9999,213.1737, , ,195.2635,97.0770
1117,33.0259,104.7259, , ,195.2635,96.4947
1118,33.0519,126.3432, , ,195.2635,96.5845
1119,33.0779,155.5474, , ,195.2635,96.7135
1120,33.1039,135.0857, , ,195.2635,96.5855
1121,33.1299,70.4719, , ,195.2635,96.2282
1122,33.1559,92.5461, , ,195.2635,96.3206
1123,33.1819,10.1606, , ,195.2635,95.8697
1124,33.2079,90.4866, , ,195.2635,96.2655
1125,33.2339,31.6297, , ,195.2635,95.9370
1126,33.2599,-18.4908, , ,195.2635,95.6531
1127,33.2859,-76.0942, , ,195.2635,95.3998
1128,33.3119,57.8036, , ,195.2635,96.1470
1129,33.3379,54.8316, , ,195.2635,96.1795
1130,33.3639,54.7562, , ,195.2635,96.2270
1131,33.3899,41.1615, , ,195.2635,96.2043
1132,33.4159,97.9272, , ,195.2635,96.5467
1133,33.4419,24.2129, , ,195.2635,96.2121
1134,33.4679,-13.6779, , ,195.2635,96.0630
1135,33.4939,96.2355, , ,195.2635,96.6811
1136,33.5199,139.7811, , ,195.2635,96.9536
1137,33.5459,155.7903, , ,195.2635,97.0836
1138,33.5719,229.5358, , ,195.2635,97.5100
1139,33.5979,293.4713, , ,195.2635,97.8844
1140,33.6239,315.9577, , ,195.2635,98.0463
1141,33.6499,273.1756, , ,195.2635,97.8750
1142,33.6759,270.9754, , ,195.2635,97.9108
1143,33.7019,286.6781, , ,195.2635,98.0380
1144,33.7279,190.8424, , ,195.2635,97.5953
1145,33.7539,180.3929, , ,195.2635,97.5042
1146,33.7799,196.3389, , ,195.2635,97.5483
1147,33.8059,60.7757, , ,195.2635,96.8131
1148,33.8319,14.4213, , ,195.2635,96.5354
1149,33.8579,51.5239, , ,195.2635,96.6895
1150,33.8839,12.7031, , ,195.2635,96.4505
1151,33.9099,24.3084, , ,195.2635,96.4727
1152,33.9359,7.9600, , ,195.2635,96.3498
1153,33.9619,-13.5775, , ,195.2635,96.1999
1154,33.9879,8.8050, , ,195.2635,96.2603
1155,34.0139,53.7690, , ,195.2635,96.4378
1156,34.0399,118.0132, , ,195.2635,96.7147
1157,34.0659,164.8530, , ,195.2635,96.9011
1158,34.0919,299.9043, , ,195.2635,97.5403
1159,34.1179,475.0150, , ,195.2635,98.3792
1160,34.1439,581.6920, , ,195.2635,98.8655
1161,34.1699,727.5864, , ,195.2635,99.5466
1162,34.1959,983.3590, , ,195.2635,100.7698
1163,34.2219,1249.6780, , ,195.2635,101.9772
1164,34.2479,1570.5400, , ,195.2635,103.4346
1165,34.2739,1819.6190, , ,195.2635,104.5288
1166,34.2999,1936.3310, , ,195.2635,104.9832
1167,34.3259,2063.0030, , ,195.2635,105.4829
1168,34.3519,1869.6420, , ,195.2635,104.4594
1169,34.3779,1556.3760, , ,195.2635,102.8445
1170,34.4039,1342.1980, , ,195.2635,101.6922
1171,34.4299,1028.9360, , ,195.2635,100.0326
1172,34.4559,687.3798, , ,195.2635,98.2011
1173,34.4819,479.6323, , ,195.2635,97.0268
1174,34.5079,401.8369, , ,195.2635,96.5137
1175,34.5339,312.1030, , ,195.2635,95.9357
1176,34.5599,191.6518, , ,195.2635,95.1929
1177,34.5859,53.4891, , ,195.2635,94.3505
1178,34.6119,105.4825, , ,195.2635,94.5119
1179,34.6379,6.1456, , ,195.2635,93.8704
1180,34.6639,0.8229, , ,195.2635,93.7274
1181,34.6899,-17.6848, , ,195.2635,93.5352
1182,34.7159,14.5584, , ,195.2635,93.6141
1183,34.7419,-10.2906, , ,195.2635,93.3878
1184,34.7679,56.2723, , ,195.2635,93.6502
1185,34.7939,47.6983, , ,195.2635,93.5110
1186,34.8199,152.6924, , ,195.2635,93.9777
1187,34.8459,247.5067, , ,195.2635,94.3883
1188,34.8719,373.8395, , ,195.2635,94.9632
1189,34.8979,441.5478, , ,195.2635,95.2273
1190,34.9239,651.6524, , ,195.2635,96.2334
1191,34.9499,671.1870, , ,195.2635,96.2440
1192,34.9759,804.8165, , ,195.2635,96.8456
1193,35.0019,824.1834, , ,195.2635,96.8553
1194,35.0279,887.3833, , ,195.2635,97.0911
1195,35.0539,773.1195, , ,195.2635,96.4102
1196,35.0799,634.3025, , ,195.2635,95.5962
1197,35.1059,416.6944, , ,195.2635,94.3586
1198,35.1319,388.0950, , ,195.2635,94.1141
1199,35.1579,435.1553, , ,195.2635,94.2216
1200,35.1839,277.2037, , ,195.2635,93.2359
1201,35.2099,258.8385, , ,195.2635,92.9933
1202,35.2359,121.8979, , ,195.2635,92.1086
1203,35.2619,50.1217, , ,195.2635,91.5718
1204,35.2879,-25.4684, , ,195.2635,91.0109
1205,35.3139,34.3209, , ,195.2635,91.1919
1206,35.3399,145.3112, , ,195.2635,91.6522
1207,35.3659,-66.2281, , ,195.2635,90.3425
1208,35.3919,-26.9182, , ,195.2635,90.3436
1209,35.4179,-68.8463, , ,195.2635,89.8940
1210,35.4439,-48.8246, , ,195.2635,89.7878
1211,35.4699,-13.4278, , ,195.2635,89.7671
1212,35.4959,-95.5338, , ,195.2635,89.0893
1213,35.5219,-86.4057, , ,195.2635,88.9209
1214,35.5479,-10.1946, , ,195.2635,89.1293
1215,35.5739,19.1073, , ,195.2635,89.0742
1216,35.5999,-32.7445, , ,195.2635,88.5622
1217,35.6259,-4.6560, , ,195.2635,88.6091
1218,35.6519,55.8071, , ,195.2635,88.8383
1219,35.6779,-29.0856, , ,195.2635,88.2473
1220,35.7039,60.2460, , ,195.2635,88.6405
1221,35.7299,86.6313, , ,195.2635,88.6777
1222,35.7559,100.0165, , ,195.2635,88.6417
1223,35.7819,8.7535, , ,195.2635,88.0131
1224,35.8079,-48.6300, , ,195.2635,87.5737
1225,35.8339,-19.6081, , ,195.2635,87.6264
1226,35.8599,32.5073, , ,195.2635,87.8158
1227,35.8859,54.7639, , ,195.2635,87.8350
1228,35.9119,81.0438, , ,195.2635,87.8771
1229,35.9379,16.3346, , ,195.2635,87.4001
1230,35.9639,-87.6134, , ,195.2635,86.6945
1231,35.9899,5.5508, , ,195.2635,87.1219
1232,36.0159,13.2859, , ,195.2635,87.0578
1233,36.0419,6.8259, , ,195.2635,86.9121
1234,36.0679,-31.1531, , ,195.2635,86.5843
1235,36.0939,-14.8753, , ,195.2635,86.6013
1236,36.1199,67.9862, , ,195.2635,87.0018
1237,36.1459,20.7454, , ,195.2635,86.6530
1238,36.1719,86.0999, , ,195.2635,86.9527
1239,36.1979,-1.4046, , ,195.2635,86.3709
1240,36.2239,38.3667, , ,195.2635,86.5238
1241,36.2499,62.2849, , ,195.2635,86.5849
1242,36.2759,-23.0723, , ,195.2635,86.0131
1243,36.3019,-10.9995, , ,195.2635,86.0058
1244,36.3279,12.5822, , ,195.2635,86.1131
1245,36.3539,-7.8467, , ,195.2635,85.9647
1246,36.3799,75.8299, , ,195.2635,86.4205
1247,36.4059,81.4844, , ,195.2635,86.4236
1248,36.4319,32.9804, , ,195.2635,86.1129
1249,36.4579,117.6179, , ,195.2635,86.5734
1250,36.4839,127.7040, , ,195.2635,86.6021
1251,36.5099,5.1688, , ,195.2635,85.8620
1252,36.5359,34.5111, , ,195.2635,86.0030
1253,36.5619,134.3711, , ,195.2635,86.5521
1254,36.5879,76.3390, , ,195.2635,86.1865
1255,36.6139,129.7477, , ,195.2635,86.4663
1256,36.6399,110.8252, , ,195.2635,86.3272
1257,36.6659,62.3476, , ,195.2635,86.0162
1258,36.6919,66.4796, , ,195.2635,86.0105
1259,36.7179,86.1009, , ,195.2635,86.0948
1260,36.7439,52.7114, , ,195.2635,85.8710
1261,36.7699,-47.8738, , ,195.2635,85.2533
1262,36.7959,-41.0474, , ,195.2635,85.2568
1263,36.8219,2.7223, , ,195.2635,85.4768
1264,36.8479,-56.5471, , ,195.2635,85.0928
1265,36.8739,-104.1615, , ,195.2635,84.7759
1266,36.8999,-74.7656, , ,195.2635,84.9124
1267,36.9259,-102.0221, , ,195.2635,84.7151
1268,36.9519,-113.0545, , ,195.2635,84.6132
1269,36.9779,-105.8301, , ,195.2635,84.6191
1270,37.0039,-27.4130, , ,195.2635,85.0446
1271,37.0299,128.7551, , ,195.2635,86.0037
1272,37.0559,132.1194, , ,195.2635,86.0691
1273,37.0819,-1.1707, , ,195.2635,85.3375
1274,37.1079,38.5873, , ,195.2635,85.6163
1275,37.1339,138.0743, , ,195.2635,86.2411
1276,37.1599,84.3813, , ,195.2635,85.9751
1277,37.1859,2.1455, , ,195.2635,85.5416
1278,37.2119,74.9341, , ,195.2635,86.0119
1279,37.2379,201.9910, , ,195.2635,86.7928
1280,37.2639,178.0581, , ,195.2635,86.7003
1281,37.2899,129.3286, , ,195.2635,86.4645
1282,37.3159,39.8331, , ,195.2635,85.9913
1283,37.3419,73.6431, , ,195.2635,86.2334
1284,37.3679,15.0507, , ,195.2635,85.9389
1285,37.3939,123.3608, , ,195.2635,86.6123
1286,37.4199,40.1673, , ,195.2635,86.1765
1287,37.4459,19.9316, , ,195.2635,86.1048
1288,37.4719,0.0265, , ,195.2635,86.0350
1289,37.4979,-7.4501, , ,195.2635,85.9812
1290,37.5239,-49.4404, , ,195.2635,85.7263
1291,37.5499,-83.6846, , ,195.2635,85.5160
1292,37.5759,-18.4831, , ,195.2635,85.8860
1293,37.6019,-2.3330, , ,195.2635,85.9696
1294,37.6279,-51.9716, , ,195.2635,85.6701
1295,37.6539,-8.4546, , ,195.2635,85.9133
1296,37.6799,24.2037, , ,195.2635,86.0929
1297,37.7059,46.0573, , ,195.2635,86.2094
1298,37.7319,49.1688, , ,195.2635,86.2171
1299,37.7579,144.4427, , ,195.2635,86.7576
1300,37.7839,159.1122, , ,195.2635,86.8319
1301,37.8099,276.8355, , ,195.2635,87.4970
1302,37.8359,151.1182, , ,195.2635,86.7654
1303,37.8619,200.3909, , ,195.2635,87.0386
1304,37.8879,213.7732, , ,195.2635,87.1053
1305,37.9139,80.3469, , ,195.2635,86.3257
1306,37.9399,112.5065, , ,195.2635,86.5015
1307,37.9659,73.1605, , ,195.2635,86.2093
1308,37.9919,114.1583, , ,195.2635,86.3825
1309,38.0179,89.8889, , ,195.2635,86.1775
1310,38.0439,104.5791, , ,195.2635,86.1982
1311,38.0699,137.6948, , ,195.2635,86.3258
1312,38.0959,84.8358, , ,195.2635,85.9545
1313,38.1219,25.5505, , ,195.2635,85.5440
1314,38.1479,-59.9224, , ,195.2635,84.9776
1315,38.1739,36.3449, , ,195.2635,85.4772
1316,38.1999,24.0006, , ,195.2635,85.3138
1317,38.2259,-13.7028, , ,195.2635,85.0011
1318,38.2519,-85.0902, , ,195.2635,84.4881
1319,38.2779,-69.0278, , ,195.2635,84.4911
1320,38.3039,-59.1733, , ,195.2635,84.4574
1321,38.3299,-35.9644, , ,195.2635,84.5027
1322,38.3559,-13.1404, , ,195.2635,84.5457
1323,38.3819,-67.3090, , ,195.2635,84.1323
1324,38.4079,40.2545, , ,195.2635,84.6774
1325,38.4339,-23.1958, , ,195.2635,84.3715
1326,38.4599,58.2220, , ,195.2635,84.9219
1327,38.4859,58.4412, , ,195.2635,84.9923
1328,38.5119,86.3519, , ,195.2635,85.2253
1329,38.5379,34.9638, , ,195.2635,84.9924
1330,38.5639,173.9349, , ,195.2635,85.8745
1331,38.5899,182.2102, , ,195.2635,85.9910
1332,38.6159,105.9603, , ,195.2635,85.6152
1333,38.6419,45.0089, , ,195.2635,85.3274
1334,38.6679,84.6373, , ,195.2635,85.5414
1335,38.6939,18.5012, , ,195.2635,85.1360
1336,38.7199,37.6946, , ,195.2635,85.2307
1337,38.7459,65.1628, , ,195.2635,85.3738
1338,38.7719,144.9103, , ,195.2635,85.8218
1339,38.7979,169.6990, , ,195.2635,85.9483
1340,38.8239,256.2443, , ,195.2635,86.4327
1341,38.8499,291.6710, , ,195.2635,86.6197
1342,38.8759,373.4303, , ,195.2635,87.0728
1343,38.9019,368.6901, , ,195.2635,87.0281
1344,38.9279,462.9045, , ,195.2635,87.5502
1345,38.9539,519.1523, , ,195.2635,87.8535
1346,38.9799,511.1975, , ,195.2635,87.7908
1347,39.0059,548.1547, , ,195.2635,87.9837
1348,39.0319,435.6087, , ,195.2635,87.3243
1349,39.0579,324.2340, , ,195.2635,86.6666
1350,39.0839,292.8275, , ,195.2635,86.4675
1351,39.1099,264.2690, , ,195.2635,86.2845
1352,39.1359,257.3930, , ,195.2635,86.1411
1353,39.1619,204.7021, , ,195.2635,85.7306
1354,39.1879,169.1431, , ,195.2635,85.4184
1355,39.2139,110.2502, , ,195.2635,84.9680
1356,39.2399,46.0939, , ,195.2635,84.4840
1357,39.2659,-5.8471, , ,195.2635,84.0698
1358,39.2919,-40.8673, , ,195.2635,83.7547
1359,39.3179,16.7973, , ,195.2635,83.9920
1360,39.3439,44.0595, , ,195.2635,84.0480
1361,39.3699,-41.1694, , ,195.2635,83.6311
1362,39.3959,-57.1257, , ,195.2635,83.6273
1363,39.4219,-79.4023, , ,195.2635,83.5857
1364,39.4479,-101.2652, , ,195.2635,83.5466
1365,39.4739,-96.3022, , ,195.2635,83.6679
1366,39.4999,-110.5631, , ,195.2635,83.6742
1367,39.5259,-78.7146, , ,195.2635,83.9556
1368,39.5519,-107.0818, , ,195.2635,83.8779
1369,39.5779,-158.7055, , ,195.2635,83.6613
1370,39.6039,-227.9867, , ,195.2635,83.3382
1371,39.6299,-200.3818, , ,195.2635,83.5953
1372,39.6559,-22.7532, , ,195.2635,84.7415
1373,39.6819,26.4062, , ,195.2635,85.1212
1374,39.7079,48.9057, , ,195.2635,85.3430
1375,39.7339,158.0367, , ,195.2635,86.0691
1376,39.7599,199.0592, , ,195.2635,86.3958
1377,39.7859,285.7300, , ,195.2635,86.9841
1378,39.8119,369.0856, , ,195.2635,87.5495
1379,39.8379,295.2789, , ,195.2635,87.2148
1380,39.8639,189.7988, , ,195.2635,86.6964
1381,39.8899,232.9096, , ,195.2635,87.0328
1382,39.9159,184.3345, , ,195.2635,86.8415
1383,39.9419,84.5294, , ,195.2635,86.3537
1384,39.9679,7.6617, , ,195.2635,85.9075
