3596
4000.36533379555
650.420452594757
1
128
2
98.4612090154226
98.5471326697514
98.5016391976501
98.4335347987794
98.4348921338076
98.4264836878957
98.417230234234
98.4082391158307
98.3968870488271
98.4260698894786
98.4268045274995
98.4432737899432
98.4714532683744
98.4207725194284
98.3619779656334
98.3486816712347
98.3464207025456
98.3769048304764
98.4604955826666
98.4911429047302
98.4294269541981
98.3739020468764
98.378833862311
98.4025322132291
98.3959082378101
98.3533867403574
98.3750551530314
98.4724692003034
98.544431501775
98.5279614643047
98.4731231975815
98.4487366045011
98.4674877867395
98.4720038325931
98.4319573348788
98.4058741176789
98.4067427147416
98.4380655174066
98.4488970515209
98.4585986860551
98.4908578099517
98.4914979462206
98.5028610329239
98.4716033274234
98.4033598571328
98.3841854317708
98.4335192365975
98.46393012427
98.4055530753193
98.3082585711149
98.2920606650393
98.2686023096348
98.1973949964891
98.2965670863497
98.3922257609904
98.3995536439989
98.339069651509
98.2240865641709
98.3177770075984
98.4441882937652
98.4490866394881
98.4906390184945
98.527863274591
98.5136073493597
98.4732494223754
98.4945999324994
98.490929017458
98.3657002256211
98.1934746690231
98.2282136724368
98.3246334883483
98.3343913762672
98.3961208094734
98.5287420336246
98.5897400609218
98.4783228667127
98.2657553358031
98.2048558064489
98.3612776947419
98.4272415286929
98.4275212855149
98.3997961519732
98.3809286114961
98.4224639720892
98.3381620405598
98.3251635603062
98.4686453314399
98.5475331618815
98.5219189557414
98.5553688038915
98.5862564429923
98.533620101015
98.4470993367098
98.4287393636604
98.4742755863095
98.463878726437
98.3466833010869
98.1842631231519
97.9914040465252
98.0632989189223
98.2294237086805
98.1524255524016
98.277115120121
98.2133919552932
98.1674050043849
98.4558452362974
98.6417016168167
98.6858298944981
98.6372385416936
98.5627869976453
98.5088283298478
98.4139670055847
98.1707710119874
98.1961327805976
98.5335710945411
98.684119135312
98.6812345065007
98.4946403849522
98.1215832136085
98.1495631389265
98.3742285666543
98.4024491127073
98.4864926074434
98.3026422675377
97.9745411001016
98.1293328907755
98.5644485359637
98.6877136506779
98.692127578882
98.6010113420498
98.3665882225412
98.2327441073239
98.3682829152158
98.5041288107869
98.354556625609
97.9849288823865
97.8555065719506
98.3341399264449
98.7602121683655
98.6856275741978
98.3846487630472
98.2759304805258
98.3545698818798
98.3623255252018
98.3636026158233
98.4827608207471
98.6867599119297
98.6776042967739
98.4907788616017
98.3321679826257
98.3510440314741
98.1906590513903
97.7785578857548
97.6767703315278
97.8295013512983
98.1757196503263
98.7816767600034
98.7996155592424
98.7933693614636
98.777847821906
98.757080344595
98.7214260676408
98.5984343308158
98.3410259377036
98.2958017363249
98.4558685927814
98.3226534026336
98.1098705788778
98.1279834807246
98.0873687674946
98.0662233499043
98.3332345628356
98.4880577439742
98.4288729428446
98.5932703750491
98.6954653014334
98.4319378430768
98.4365171874879
98.7329745548987
98.7436317334687
98.5524399481487
98.3487520643989
98.3519854269617
98.5216539996791
98.5505579750157
98.4141869220112
98.2480506329616
98.0317909611277
97.9916321343337
98.2471247560806
98.5966827052235
98.7437437560505
98.5484872721832
98.2413771402258
98.3900864034909
98.7336020090686
98.753368921533
98.6750224711755
98.5951405390913
98.6091376504564
98.6342217861396
98.5270399066507
98.2379158624038
97.9705187237128
98.2580300562916
98.5949268705736
98.5717134915767
98.4450471127396
98.1413561106383
97.847617281205
98.1434504522493
98.6996324814973
98.7626531633505
98.5711736334797
98.378225448835
98.4744619027326
98.7350950057079
98.7617500613518
98.6722951046135
98.6472897791103
98.6375999634742
98.5732784878593
98.5563287891506
98.5342049365259
98.4668511131495
98.4163653611513
98.2988798234058
98.2631050866982
98.3858275850745
98.4522231747235
98.5020984280139
98.4869188048738
98.3186543346031
98.3391716368078
98.4916206579409
98.4600649725288
98.4681062976282
98.5466663796797
98.5820763173226
98.5175866775134
98.528399193249
98.4945765224088
98.284695968962
98.1294644623456
98.4150501911481
98.6021977951806
98.4925120160725
98.3087289015472
98.3228808315667
98.450623102113
98.4470835067104
98.4413688463868
98.5129847519485
98.3786439792823
98.1923905492124
98.3622823660006
98.4429890210825
98.2525363352402
98.3146185827255
98.5416511958091
98.4364020376264
98.1372568551628
97.8462702525308
97.9095351158928
97.9366532307036
97.8841267866818
98.4317747645285
98.8131156167045
98.6616626776356
98.1998576615464
97.7647697654396
98.0638650578297
98.858731903082
98.8523532164372
98.5498801048921
98.6435289188232
98.5547959969034
98.2876846735005
98.2281820606068
98.2406795800979
98.1346463808363
98.151508305161
98.5442050110199
98.3239747723066
98.2627025043275
98.7717431617357
98.9818656797458
98.8599275712868
98.632891554754
98.4076319523463
98.3155683811455
98.3142284179003
98.4761633576563
98.5920952082668
98.344788646973
98.44516603035
98.6573624081455
98.4981619964277
98.5077481370856
98.7456979165737
98.6826879664911
98.5726192758363
98.4648225323351
98.3869696692226
98.1826257918091
97.8632059207705
98.0800964945461
98.2801523724855
98.214066616931
98.4764875035926
98.6274063046673
98.5549623195005
98.5690374744506
98.6218242611635
98.5513726879509
98.4357238650484
98.2531519009549
98.3034725763685
98.5174308976929
98.5019464506058
98.5072894971564
98.5088401733233
98.4594144092228
98.4181568643626
98.3819413167705
98.4337992602899
98.3744189411374
98.1187443862075
98.0084684528936
98.0986582420881
97.964984813395
97.9863682567818
98.4934326453918
98.7281818753888
98.6086984291144
98.5133876665138
98.5381673703018
98.5187199123641
98.5057334381635
98.3281300201539
98.1742673826644
98.2978324796266
98.2872425809242
97.8790402691753
97.4937493274288
97.6345734662937
98.2426561688673
98.5861988234852
98.4724515370256
98.0552885104116
98.0383640121779
98.2532632221221
98.2343750592625
98.4859331180447
98.5466832709515
98.54336224152
98.5163860062385
98.3660753176596
98.2727606052545
98.2373771040241
98.2254614594057
98.199558764695
98.1107075965738
98.0162372713561
97.929198922234
97.7482564438283
97.8422945371227
97.9375732034875
97.9242732302365
97.8366122726855
97.5381098070675
97.2557489949189
97.2527218651201
97.4199196578813
97.5395221384919
97.5838279066075
97.9825658753194
98.1094672363199
98.0279236111975
97.9145576579546
97.8262395863675
97.8714255591411
97.9035637661778
97.7293295068796
97.5543601181127
97.5196036983084
97.5805495896021
97.5135249603132
97.4506324118655
97.3485621617983
97.4068456768487
97.4905122453584
97.3486245115059
97.0715124709468
96.6883441539537
96.7630050019208
97.2791608701101
97.4226888956248
97.4003493271563
97.4923086775651
97.4280360446324
97.3603980135773
97.2583821493275
97.1344655023592
96.9349060899778
96.7487274576895
96.8388200427153
97.0513206552916
97.2600817339882
97.1285792846345
96.9426942457602
96.90236012321
96.844619628756
97.0475398910448
97.1514657119788
96.8979546393024
96.8568202463084
97.0014697340538
96.9254615930894
97.1046008518578
97.1945778700921
97.0946028445568
96.9832726200721
96.842205722391
96.8016399315653
96.7938349214081
96.8636487375866
96.8870183342092
96.9155620676197
96.7717404526622
96.5162456889154
96.4775143645584
96.6278071287627
96.6556507241183
96.7677621379259
96.8203509609527
96.7278654967681
96.5757162922779
96.3231535278163
96.1492532425125
96.124125337368
96.5156950395723
96.8049323986513
96.7456994592468
96.6361953684414
96.6829090338102
96.654270918988
96.500278337509
96.4877169080402
96.433372416873
96.403195014511
96.5457710063481
96.5800689200865
96.491525071862
96.497457701392
96.3852597583742
96.350013600002
96.385401943648
96.3013996692833
96.0251477271001
95.8400951375373
95.9318645545135
95.968683638001
96.2277499019893
96.3993094564919
96.3697536890516
96.4567060674069
96.4049100199319
96.3044418541535
96.2084661150391
96.2156071507915
96.2704905748852
96.258008312519
96.2339915835607
96.176790186021
96.1213809249415
96.0945779393633
96.0766147561646
96.1117116381466
96.1307378625336
96.17981282897
96.1547802733427
95.9980420727549
95.8358541388892
95.7447142910924
95.8238771177774
95.9729313584963
95.9799257914189
96.0255363442297
96.1134034798707
96.0942276760372
96.0466609919383
95.9843674800959
95.8758435466368
95.8347365528722
95.9018903769018
95.887526804375
95.8853291323688
95.8734525486823
95.7566981276144
95.7174085506959
95.7293388379818
95.7486897522538
95.6881729922695
95.5746732825459
95.6338894389602
95.6257532785167
95.5323054841787
95.5645261983631
95.581572638687
95.6371402569122
95.8080994362697
95.8005514324995
95.6158002213565
95.5576811005526
95.5275810360263
95.5465386871689
95.6131752449216
95.5968142550324
95.54257184581
95.4718714767441
95.4665074484447
95.4750373664492
95.3956319515594
95.342221537336
95.4847617433032
95.5331656580429
95.3824837706656
95.306781234139
95.3280843113998
95.3090881483279
95.3395186927403
95.3418760537971
95.3580104414152
95.403689372563
95.4306626541269
95.3729467562588
95.3474842354202
95.3233721434262
95.3398419065537
95.3667072566545
95.349254963189
95.3258210564147
95.2898666972222
95.2890786727463
95.2604048453792
95.1516173238835
95.1512550634989
95.1781055482435
95.1678967462625
95.252689546901
95.2664190978946
95.0724219449887
95.0399648761198
95.142575678132
95.1965355243481
95.1257907519724
95.0932928839778
95.1278139070878
95.1326575763795
95.1137697047086
95.0939954351903
95.1064879535179
95.0525292246895
94.9822553484077
95.0276524862124
95.0615741133399
94.9993786155402
94.9923782852517
95.0104143499249
95.0379297340283
94.9432733397853
94.7607870325502
94.7896094906813
94.9321186583575
94.9228465892182
94.9113997203989
94.936791256962
94.8745965718431
94.8802860426642
95.0419799152494
95.0426383900663
94.9064964175177
94.8069653354291
94.8032862590476
94.8286835134767
94.7660527093715
94.7057960996724
94.710155671117
94.6684977463259
94.5752621256052
94.5253220319469
94.5978689542545
94.6919869698683
94.6884804239849
94.6993930693411
94.7177279404837
94.6478033668898
94.5977774960374
94.6170387573586
94.6316611496377
94.5985774087647
94.61076350574
94.6323764295486
94.581380921637
94.5623160650565
94.5629387406696
94.5225370541418
94.4982714804211
94.4834071288798
94.4377181401775
94.4371705166188
94.5386977510273
94.6124200809894
94.6066995998954
94.5576791848669
94.4814007803385
94.3994370539872
94.4381666557905
94.4419414780226
94.4130072174366
94.4178348238941
94.4459893403991
94.5091524069537
94.4825737200188
94.4504595069234
94.4748484969148
94.4311193395003
94.411129262946
94.4127347949233
94.3428049521419
94.3056130596873
94.3292958853278
94.3412291656389
94.348445296362
94.3342460195628
94.3295034829411
94.3675397314432
94.4068715959106
94.3424157445104
94.3179799873616
94.4192360533623
94.4129770243288
94.3314295616021
94.293424662658
94.277033126052
94.3088511001495
94.2729245116982
94.221918399433
94.2269888278603
94.2850605815679
94.3380010745456
94.3231522461439
94.2665879409791
94.2309265152745
94.2238183653797
94.2671521318014
94.3222551749317
94.3156978541487
94.3097295541312
94.3352569956468
94.3420750372283
94.3772730153788
94.3742262325424
94.3357859575305
94.3717932746979
94.3753262201476
94.295310044989
94.2468307185775
94.2447887762995
94.2100056074339
94.1830293913068
94.1827528023692
94.197457178861
94.1754995261947
94.1639958567814
94.2116825119468
94.2279448959697
94.2228227430385
94.2311561516199
94.2616848332505
94.3049200201294
94.2616456022477
94.2219586354846
94.2656998020366
94.2769212387613
94.2888251486171
94.3053090803438
94.247423562835
94.21269200187
94.2106496163246
94.217069462405
94.2502179719502
94.306936248096
94.3302416452325
94.2472058598796
94.1840310836522
94.2281786889297
94.2293595809794
94.2126000449004
94.203885393864
94.1844002178422
94.1658400830959
94.1909237518346
94.2326395904739
94.2406065967664
94.2304014043232
94.2030259958317
94.1810732598894
94.1654967679077
94.1768061516348
94.1924211997746
94.1654307680282
94.1829693334279
94.2582600823538
94.2546581615515
94.2328444096302
94.2246863243682
94.1859186244998
94.1740323349054
94.1308175286993
94.0953898370891
94.1082536941224
94.1380468145746
94.1251950426232
94.0785521698259
94.0922364647635
94.1349241252615
94.1459316718248
94.1583448075946
94.1567013686029
94.1394483294382
94.1468515844896
94.1482391980674
94.1189524896493
94.0956627601561
94.0759361179682
94.0506116640408
94.0258996215072
94.0446765992492
94.0911821038074
94.1069544049261
94.121137058707
94.1258972846872
94.1117385895453
94.1220723643684
94.1524621651576
94.1925758385082
94.2244237744103
94.1713979565679
94.0952971105475
94.1074906075906
94.1631441823052
94.1698669780361
94.1070792211871
94.0828679180959
94.1130234135352
94.14439087428
94.1401743999063
94.1465204334961
94.1693557705643
94.1518144774834
94.1404037684508
94.1617615948214
94.184255053954
94.2041798607657
94.2042669567179
94.1660842027152
94.1439797655751
94.1477222914962
94.1292386432849
94.1004377126145
94.103689694437
94.0981310738495
94.098339918171
94.157965193653
94.1983243890408
94.1553399858861
94.1002431088872
94.0988262661851
94.0770682698677
94.0799316934814
94.1554477534024
94.2004499699078
94.1685872438055
94.1703237484273
94.2075464566232
94.2042226419856
94.1431024868323
94.1062197223494
94.1423676761675
94.1680927683824
94.1450395941378
94.0699320531413
94.0458764702893
94.1180558982927
94.136216898399
94.0782726048122
94.0841162397272
94.1434835991635
94.1405374446877
94.1030348633984
94.1088752297617
94.1086998411801
94.0709310232505
94.0745954932354
94.0767178641669
94.1051809891419
94.1484455411686
94.0974637866763
94.0594042303072
94.069115749933
94.0597790691264
94.0741261810984
94.0722731257599
94.080156231226
94.1609667787496
94.1971572051435
94.1340872651265
94.0498972262049
94.0366973231186
94.0749479406794
94.1007265227753
94.0995873498609
94.090975497925
94.0776571780587
94.0521469614375
94.0318868296979
94.0405053444641
94.0781725880402
94.0998475912138
94.0947520928022
94.095399345354
94.0784379091058
94.0308461572488
94.0534838603353
94.0862893098986
94.0845597067695
94.1278253054466
94.1372054807483
94.0694204445075
94.0241741588963
94.0425201567213
94.0479595061891
94.0628124685832
94.0794078161536
94.0592170770291
94.085861322161
94.1083598585432
94.0966868728322
94.1054110808914
94.0893925139754
94.0374630165939
94.0258336253962
94.0397590425211
94.0622000977886
94.0834748314931
94.0477401348211
94.0316484480115
94.0620117296931
94.0663346185615
94.0808648214834
94.1309027658623
94.1091700330284
94.0380975445884
94.0187080319556
94.0657945650141
94.0983596826249
94.0584278759543
94.0075908579798
94.0417526579859
94.0832487838166
94.0449021332657
94.0370490373359
94.0865779168236
94.147060570745
94.157673304194
94.1258495583217
94.082993624431
94.0780287396025
94.0704820850579
94.0510012989361
94.032930532406
94.0287761244001
94.06377327113
94.1048353553404
94.116257406736
94.1298667683362
94.1246095712437
94.0707855411069
94.0395697183688
94.0790886816649
94.0903222492632
94.0440195229284
94.0625264833016
94.1412710192355
94.1164966124796
94.0173108426321
94.0348870950148
94.0784433173379
94.0802479616684
94.0837203102186
94.1164962656567
94.1338731375216
94.0948296319972
94.0660559676257
94.0327636569335
94.0137621762626
94.0582789947232
94.0714159586111
94.061551662876
94.1069655669696
94.0914871763482
94.0116867559327
94.0147215708114
94.0664496379103
94.0709514527495
94.0707316421263
94.0492813302923
94.0313032172072
94.0467547993021
94.0698152937758
94.0779594841993
94.1040671863147
94.1227330622242
94.1016491715596
94.0634819432787
94.0481674251159
94.1194156257904
94.1721359352667
94.1318632796776
94.0917420799995
94.0750552083242
94.0524234588005
94.0997445690376
94.1769381533329
94.1591239840843
94.107245291937
94.0545177839961
94.0269263431512
94.0053320820722
94.0379177438842
94.0634497321472
94.064432063288
94.0572530255411
94.0575105955874
94.1078453762859
94.1388993995716
94.1456222016495
94.1370003744736
94.1314225941612
94.1536946475616
94.1526845224254
94.1077650989253
94.1147615529159
94.1700172195459
94.1422663210307
94.0970076506262
94.1128250115604
94.0910080283391
94.0709050686747
94.0746982686578
94.050781652815
94.0717667322081
94.1529012882612
94.1458589225191
94.0718278010597
94.0911355095592
94.1887604912399
94.2228110817528
94.1479119384035
94.0976180448278
94.1008633376436
94.1041415484743
94.1167613668842
94.1526504840106
94.1538468078049
94.1146394861364
94.134903352119
94.1574282465746
94.1493289579184
94.1484606056554
94.0858201795665
94.0655826209936
94.1228716222515
94.1535323855995
94.1471940781698
94.1507968422074
94.1928936615178
94.1886567713381
94.1574174063889
94.1554820619968
94.1616992251161
94.1546862259415
94.1260338845988
94.0973476598842
94.0917396111471
94.0676173544539
94.0403799315204
94.0614389747778
94.0826175603241
94.0837595557507
94.0947820011631
94.0779516720182
94.1021156324478
94.1762549073926
94.1950300573237
94.1565952095017
94.0960677921973
94.0781150434112
94.1448684067298
94.1807683529374
94.1779447078773
94.1624603164481
94.1198733730147
94.1493902721855
94.1820095994735
94.1506514266224
94.1670359805108
94.2370196069353
94.2574205857798
94.2330852790942
94.1760392183124
94.1696035898426
94.2544234920279
94.2652553949637
94.2401410304277
94.2617319774892
94.2480098752825
94.2265879359085
94.2117738850012
94.258872931234
94.2939589877501
94.2426330662138
94.2352714074596
94.270126750492
94.2638918668776
94.2087172412448
94.2341786246925
94.2925937303835
94.3147774293631
94.29737346991
94.29938440346
94.3543676609183
94.3740998491952
94.3476240098193
94.3392852388354
94.3548911705093
94.3859045254343
94.3777955421098
94.344231606228
94.327598349838
94.3322816365844
94.3734111155897
94.3838132716523
94.387762984927
94.3430967733694
94.3373789323111
94.3604850576544
94.4383724975558
94.4783518195946
94.4625276287162
94.4911603879202
94.4994207880248
94.4514172507547
94.4503256877358
94.486452758042
94.4909865825283
94.4786686432863
94.499230539602
94.5077371028013
94.4960932625951
94.5127388939706
94.4975982970586
94.4968598315084
94.5296562094488
94.5211809564138
94.4881285044831
94.5110358232195
94.524844691752
94.5230934778201
94.510781810326
94.520995002411
94.5158583919098
94.5052888354649
94.5134722327682
94.5499647465107
94.5959681226795
94.6003964954542
94.5477209471769
94.526563522172
94.5568902167265
94.5680067463919
94.5632621928754
94.5776801818936
94.5942482617074
94.5621119857337
94.5484514297003
94.5437906630148
94.5448523739638
94.5646945506386
94.5667546795407
94.5807912665186
94.6093575545209
94.6109847113223
94.6169567946549
94.6006855775017
94.5562580395045
94.581520578316
94.6171188479224
94.612005146257
94.5704767144696
94.5844847156743
94.6139029189218
94.5981469011626
94.6246446147337
94.636625151936
94.6296062020688
94.6357522383549
94.6194039380023
94.6533526030615
94.6621193830022
94.6067727100762
94.57486839919
94.6108318741872
94.6578488266429
94.6582550995054
94.6723786094084
94.6483430066112
94.628832329977
94.6425606435963
94.6671354807949
94.6909222881257
94.6630898671402
94.6517244672654
94.6541998487566
94.6662751770424
94.6520129375575
94.6115806649703
94.6579311596883
94.6851313777921
94.704481686044
94.7225363346849
94.7119998531922
94.664295301771
94.6285074262812
94.6758765912654
94.7093827020922
94.6838971448468
94.6631517066375
94.6924384397797
94.7256887858282
94.7265487738753
94.7362335700792
94.7407290629888
94.7300371196533
94.7628560357974
94.7713781558322
94.7127693051135
94.6741455932644
94.7013505215755
94.7368939158751
94.7583730913737
94.7740563359534
94.7939871961744
94.870682349359
94.9215811143627
94.8994218047021
94.8881000473521
94.9088254949233
94.9059864116649
94.9492923571112
94.9663673061425
94.9328991268023
94.9224681878388
94.9471715838437
94.9424248304232
94.9246771582185
94.9146882670386
94.8985552829234
94.9377367536179
94.9612418565382
94.9747011660504
94.999794530625
95.0515629647263
95.0984937250186
95.0760468752588
95.0561771711521
95.067876465323
95.0753377281683
95.0753852424403
95.0884578974797
95.0687708648373
95.0642883275672
95.0685352760999
95.0793859454798
95.1328867729041
95.1481881866971
95.1054987066746
95.0894003797051
95.0929261707199
95.1118149404191
95.1243924375197
95.1180103225547
95.1407268193988
95.1054277089017
95.085749188256
95.1160714608488
95.1797474453272
95.2242056008393
95.2126970673481
95.1685009740595
95.1734475442281
95.2082305890908
95.2204350613065
95.2266409302753
95.1797633634428
95.1687471340672
95.2541562230517
95.2849583439755
95.2229669734505
95.1884809830771
95.2585425262142
95.3247003008322
95.2776466795795
95.2504277377195
95.2509786439251
95.2818277337214
95.3235311374912
95.3036874095405
95.2861125556317
95.2790542255455
95.3039157826326
95.3159473085393
95.3312899507287
95.3702251102302
95.4216535639078
95.4531406662741
95.4376170850123
95.3790994907522
95.3640919420363
95.3849723931926
95.3660457191817
95.3558361167196
95.3763112585409
95.4392873102864
95.4877829384244
95.43834956189
95.4563850792887
95.4832614897662
95.4940310841212
95.5079022960332
95.5140472110395
95.5106237312637
95.5076230207819
95.5118885017374
95.5069636193095
95.4591822566317
95.4460071819859
95.5038065524967
95.5336703409372
95.5196055503729
95.5359638258769
95.4804890483614
95.4326398072921
95.5013745004812
95.5487690803563
95.5535207270704
95.5486651138745
95.5625065458965
95.5728056425034
95.5626153230263
95.5477849584333
95.5339502216695
95.5196630239244
95.5587103797044
95.5843513167571
95.5593540796013
95.5725899143134
95.5905724935435
95.5801995236145
95.6032996747344
95.605819557928
95.6148862862523
95.6513398047494
95.6310511204651
95.582525171756
95.5720347351278
95.6181259092987
95.6167743808654
95.6159843251285
95.6546495201956
95.6952393812552
95.6705049398764
95.639873800426
95.671113788879
95.7041327382971
95.7294686106922
95.7631410772352
95.7810664155285
95.79537908664
95.7991620038275
95.793186305297
95.7459168377233
95.7437865696515
95.7819241901953
95.831777247355
95.8437208816541
95.8292436313344
95.8175165469929
95.7934698155717
95.7791050179648
95.8001698397409
95.8339674614086
95.8571908366817
95.890039286447
95.9095281886048
95.8973929934554
95.9103541522806
95.951808981026
95.9223440716882
95.8714360115539
95.8925265513323
95.950750216808
95.9839643541111
95.950500042495
95.9328391604019
95.9352747241083
95.9542321890679
95.9495367350237
95.955892774861
95.9781368560432
96.0068765860677
96.0170787288209
95.9909187281215
95.9720512816103
95.9994091681736
96.0241394966623
96.0253370493902
96.0209082693024
96.0455408442672
96.0650604437295
96.0537064998236
96.0836379870045
96.0876110351879
96.0458311649206
96.0314164062287
96.0519075958737
96.0684803331201
96.0913142303089
96.097234688709
96.1225509349941
96.1246667222721
96.1287020746569
96.1598256253888
96.1665489229759
96.1642449098703
96.1464118279802
96.1727038132095
96.1681616061148
96.1706585908746
96.1842047448728
96.2065114223609
96.1863263351843
96.1604361743412
96.1667334439273
96.2036168709555
96.2132127919664
96.2116599885421
96.2329831330531
96.2656837967812
96.2535666807586
96.2330241582686
96.2530814126051
96.2815003178759
96.2773304143601
96.2751650769058
96.2773423229282
96.2652788554109
96.2741563901304
96.3068935368826
96.2916433916347
96.2790565858851
96.3108953789199
96.3234224265599
96.3150374785468
96.3186244446231
96.3181290704911
96.2959917187292
96.2821791160623
96.2940506729261
96.3289689794085
96.3354298736133
96.3540767676334
96.3494873179881
96.3320258866603
96.342206289518
96.3608971880748
96.3560968921635
96.3597704296966
96.3859114993615
96.3768050556135
96.3685573741652
96.3771355247948
96.4048779212269
96.4291419105458
96.4312774313437
96.408044539429
96.4168227853502
96.4255405078119
96.4208128973489
96.428479606142
96.4028551793756
96.4036347780565
96.4287591404316
96.4368576858289
96.4525934007283
96.4426034812143
96.451067603027
96.4931551282356
96.4832257791219
96.4573015713392
96.4640281287797
96.4600137380569
96.4680841463398
96.5112071411516
96.5079720114352
96.4794040519864
96.488596229106
96.5204009036073
96.5350336089284
96.5323714547678
96.5044508932331
96.4840386288016
96.4995406432547
96.4670362383433
96.4373178532464
96.4610740060801
96.4504834353175
96.4216009558632
96.4160189741601
96.4568473668263
96.486824171945
96.480109287115
96.4964636219871
96.4987960574458
96.4623423152787
96.4353175417441
96.4856531392627
96.5057756162618
96.4867208637345
96.4951092138555
96.4736490267093
96.4459597192848
96.4780197292301
96.5177663810999
96.5245916258291
96.5151908379695
96.4936158730326
96.474817738381
96.4827714579338
96.5232447294537
96.5161315889482
96.5099285293179
96.557503867249
96.5732028748642
96.5591016761307
96.5987882010616
96.6310554102251
96.6060103437468
96.613346300825
96.6388162069032
96.6449552749637
96.635588471706
96.6602468257639
96.6862107532956
96.6430005163944
96.6182714902638
96.6361356377829
96.6507744911638
96.6433686043252
96.665445980169
96.6833895563064
96.6791448289656
96.6969523925232
96.6911126178924
96.6626285365952
96.7122759801829
96.7654641424245
96.7673844023574
96.7393451769434
96.7636999864559
96.8009776106876
96.7762322314551
96.7758986770697
96.8369322550645
96.8431764844161
96.777051539242
96.7529957122418
96.832980619548
96.8830537457758
96.8594774011355
96.8489044296321
96.8825240182732
96.8837121595179
96.859889512323
96.8636803611336
96.8939595738985
96.9107715042837
96.8533336589369
96.8455291917416
96.8258301838521
96.8281220250085
96.8914634834151
96.9155142685279
96.8874742470782
96.9134528824513
96.9388129737663
96.964321144255
96.9969348957028
97.001741710584
96.9552448760818
96.9073776365463
96.8893417371378
96.9201019005925
96.9542386445667
96.9417656399704
96.9419011089105
96.987069090929
97.033135318188
97.0138776420444
96.9626909310335
96.9302417853135
96.9133996388177
96.9469328262656
96.9842702366223
96.9890676149902
97.0531433874203
97.0814813397854
97.0369352029671
97.001624521059
96.9634039450652
96.9487900994829
97.0160123848587
97.1037923845307
97.0997189523675
97.0503502373778
97.071302658356
97.0946006959235
97.0468938305536
97.0555795345586
97.0869130049516
97.1035281047462
97.100771228284
97.0965018825198
97.1009096295832
97.0529672284728
97.0578522535903
97.0704039137515
97.0764397049394
97.10152738301
97.0686937210896
97.070406471364
97.0968068137371
97.0581833369039
97.0439410047109
97.118608931192
97.137973479795
97.0649441924183
97.0490065706638
97.0862461165
97.1203363238074
97.1182963560746
97.1226532270769
97.1314257853089
97.1585557310274
97.1514903038091
97.1108802110484
97.0724015429637
97.0725805427845
97.1075784542644
97.0982772072635
97.0714305614364
97.0508223101146
97.0591816732055
97.0866469068545
97.0541337554557
97.0569212024714
97.0457319425478
97.0820574382073
97.1762000768494
97.2118513042644
97.2063444041328
97.1561715271502
97.073274562455
97.0931398600258
97.2001934869654
97.2594588981787
97.2273458903596
97.1783202687691
97.1892429156947
97.2049860987927
97.1745343621622
97.1376916204218
97.1788636503997
97.2140098141985
97.1909228768944
97.1510060556604
97.1302549144691
97.1437344848678
97.1069334144675
97.1027074463647
97.1367199391285
97.1293962971748
97.1248928862842
97.1454701243252
97.1679534128685
97.20183278266
97.1799058620567
97.1485436503258
97.130061177556
97.104244232587
97.0662681245275
97.1047535066189
97.1810694987823
97.2135598564987
97.1633846640551
97.1545618722801
97.181874321324
97.171043224601
97.1773176239794
97.2090752338375
97.2096302405272
97.2133173800173
97.2499608250026
97.2145529739887
97.1480347363963
97.2222449445431
97.2837681009707
97.2489195846289
97.2497087682806
97.2682687218466
97.2413378424089
97.2294597145515
97.218394921598
97.2195965517058
97.2426719726595
97.2226191022808
97.1691535662772
97.1696084771887
97.1970666603744
97.2229392507734
97.2492944636744
97.270050158989
97.2843805515353
97.2798234905497
97.2356755232696
97.2298453466375
97.2236810127456
97.2193188237584
97.242082650749
97.1927050755676
97.1533358847428
97.1967676859375
97.2328526424552
97.2389343565759
97.2192043949613
97.232178947035
97.257876862059
97.2561499419295
97.2729828723178
97.2442116372229
97.2046437305196
97.2281798322591
97.2364417857493
97.2104538872697
97.1986653660104
97.2082746995946
97.2756972907109
97.2940419525469
97.262710760926
97.3620197659828
97.4454488516131
97.4015094898024
97.3481912403621
97.3189188914379
97.2574297422171
97.2545427207651
97.2997986058569
97.3294383394517
97.3352324861515
97.2932911739707
97.2785040835359
97.3498154853559
97.404007505916
97.3669230453408
97.3322386784285
97.3440642930652
97.314140060978
97.2841870060988
97.2908014481146
97.3098440854459
97.3424202766946
97.34891530692
97.3359157777373
97.3338782905313
97.3282046341804
97.3335843538263
97.3327590974419
97.3493035692358
97.4069829130178
97.4214535783439
97.3414023127936
97.3154861225297
97.3367636491164
97.3488965769143
97.36345463713
97.3396077370882
97.3492074084319
97.3683800829521
97.3487900341279
97.3514454314431
97.3594289951055
97.3833079566263
97.388012310522
97.3448725419169
97.3194405382471
97.31556194625
97.3350851857007
97.3595101556956
97.3363751885774
97.3328810782856
97.3353862697484
97.3255640946788
97.3299100918038
97.329430736508
97.3258871704271
97.3342543621484
97.3361343886333
97.3148006466349
97.2521348506117
97.2690919200629
97.3172815495381
97.2809614852416
97.2238102355308
97.2376140980173
97.2822616779883
97.2901914843543
97.3132450979239
97.3551837980409
97.3464541694494
97.3898199696372
97.4479297405255
97.4530969804032
97.4965622575292
97.5424191859467
97.4721128590271
97.4298239748195
97.4909394333198
97.4913847241117
97.4763848002937
97.5385650990204
97.5581188019027
97.5410670926855
97.5102151807455
97.5194757344985
97.4818213108282
97.461565048337
97.4974629903437
97.4729863793685
97.3673397460699
97.3304125178913
97.3409505203107
97.2951115867753
97.2248388310276
97.2573799610026
97.3309705005202
97.3454725982577
97.3016700096871
97.3240512152348
97.3790747540705
97.4190832839639
97.3728059066741
97.3227086869127
97.3201469232714
97.3828106526034
97.3789606788417
97.3776688671867
97.4043718789906
97.4529020319359
97.4130913078779
97.3652189216308
97.3156731300837
97.3437263418753
97.3756356530625
97.3485103351017
97.2222008647627
97.1592303372282
97.2002371584699
97.2417775084165
97.2223438891032
97.2366571603135
97.2814883456606
97.256513965258
97.2870282617207
97.353058264383
97.3821413674982
97.3603451321459
97.3830379965521
97.361990148166
97.3982988637864
97.4289284724563
97.4185081491822
97.3583077077184
97.3836743161193
97.4207676551815
97.4244884435703
97.4165542451491
97.4317858809774
97.431287952869
97.4095280454659
97.4249283920682
97.4420241228922
97.3730485348617
97.3600671258633
97.40673519075
97.4451036473183
97.4644876269963
97.5047354770594
97.4904732525088
97.4551399310642
97.449264509892
97.4625835197255
97.4724035216165
97.472851346441
97.4432338755437
97.4670780280649
97.5231866520486
97.53233433487
97.5346940774594
97.5699496352835
97.5704511270261
97.5646683591646
97.5686944857063
97.6706663146168
97.7425650193634
97.7614449310216
97.7679462477902
97.6841846859717
97.6244371275784
97.6908092844471
97.6964659226885
97.6847879212608
97.7067506891045
97.7634631432759
97.8295022859553
97.8450964117198
97.8109675465146
97.7885604766278
97.799298908425
97.8717512239973
97.9464052196658
97.9032882610413
97.863078208211
97.9285803979486
97.8921396057198
97.8388292977607
97.8050703464828
97.807972964929
97.8924504058465
97.9880182577936
97.943225299047
97.895850939179
98.007237925698
98.0790444095678
98.0122530001506
98.032381820114
98.0301017911245
98.087951066818
98.1788675752412
98.1405497341115
98.1327034980238
98.1431084339407
98.0696959657766
98.030506035441
98.0362957995435
98.0548332861211
98.088946679291
98.136181600258
98.0920999139818
98.1111071873904
98.1894984071483
98.20286934146
98.1193650442453
98.0965058168312
98.1570464858885
98.1151340991496
98.0114760927111
98.0757992843256
98.1716573430331
98.1416442482513
98.1896362664303
98.260395094861
98.2693652493218
98.28231295725
98.2306034144331
98.2373762711374
98.3312438317272
98.374584818943
98.4021485547178
98.4439034333211
98.408630897034
98.4498169959579
98.4136576072927
98.3999549619234
98.4432547352423
98.3862951998022
98.3262488533376
98.3513590972905
98.3286438888855
98.431754162025
98.4669208269872
98.3791869067396
98.4842848284593
98.5928492980497
98.5213127617236
98.4354620017573
98.3548313644062
98.3926808852634
98.447388162559
98.4063602134293
98.4119438100929
98.5415910633628
98.5733026294039
98.4729505745673
98.4114578802442
98.5260142798132
98.6522703631309
98.6088775043714
98.4959618083012
98.5728900644705
98.6215314065112
98.6443417315363
98.7331806121064
98.8916711490511
98.9830628444791
98.8427175640144
98.8351055319402
98.7371200167929
98.7297053817753
98.8904773943117
98.8417626664032
98.789765381617
98.8003864611127
98.607370983991
98.333174688292
98.5433066638576
99.0137096793292
98.9358804474809
98.667936234475
98.7638510754736
98.8484457979555
98.883353450135
98.980727399102
99.1045974606044
99.0922622288882
99.0132213108351
98.8610758617634
98.7850923927987
98.7990606763341
98.7954356165287
98.97778862204
99.1278767660082
99.0523139690238
99.1977477929241
99.1131215625522
98.9239212019057
99.2433546667616
99.477957630473
99.3571149382969
99.1467144225097
99.0542814504148
98.9598638616869
98.8803846854663
98.8651372937836
98.9433063584514
98.8821834639549
98.7517810839255
98.6346255242074
98.6051281514945
98.6316668791897
98.5017204123968
98.457548224885
98.3770762681489
98.3928157980188
98.5700373149451
98.5124173094557
98.3971118140357
98.4282200998515
98.4524789495755
98.5058918685552
98.5079723181166
98.4100580447741
98.4006134574234
98.399752914054
98.3895139283161
98.3435577573098
98.2249568882167
98.1071011294452
98.0866793661295
98.1922078905794
98.222397650972
98.1633453866252
98.1779441696679
98.2190812273316
98.1697430181594
98.1315647945454
98.0266391101263
97.9209052335038
97.9062533126132
97.9482643394254
98.0066858393347
98.0731342889531
97.9901419987441
97.8971760383798
97.8932310264435
97.9181114989089
97.949667298217
97.9070507962439
97.8722052000004
97.8859059596448
97.9337900480684
97.9414912314658
97.9774540920853
98.0501733393008
97.9865832877021
97.9684094079416
98.0350010645923
98.0474245728906
97.992114748168
98.0472584218813
98.0183425038243
97.9471726549905
97.8990649274167
97.9044374174147
97.9581143579586
98.0295507629321
97.9113148915329
97.8494297761848
97.8537526507057
97.9249868967846
98.016175203242
97.9750057416186
97.8105388390549
97.8617606437339
97.9747704193353
97.9749025902427
97.9701603047376
98.0616590427604
98.0640688498014
98.0352749836852
98.1195606085878
98.1900511067317
98.1154339476877
98.1381552560973
98.1837693777612
98.0193414140614
97.96713872349
98.10309430539
98.0837629139964
98.0795418324701
98.1483684313485
98.1396534963835
98.141661997575
98.1067364889858
98.0201417112636
98.0165861667955
98.0796008759503
98.0941861455418
98.1441710065649
98.2041202283908
98.1333483158502
98.1924763203112
98.2387905135079
98.3162592637237
98.3668784253027
98.2137492491938
98.1341431733595
98.1866907514861
98.1601489977376
98.1079723160717
98.1518020937831
98.1761222419873
98.1087415695238
98.3395558805646
98.5095278095045
98.4007630105507
98.4181783823969
98.4398419957175
98.4076114941228
98.5704249788825
98.5303318568923
98.3761735765408
98.5146052996161
98.6378832164002
98.502096564794
98.4656250605593
98.6004315767731
98.8959582818376
98.761639838211
98.6168773461464
98.553675449895
98.7998011657541
98.8638483714532
98.7028943016666
98.6545868471876
98.5847965707534
98.6011753147844
98.6099464286332
98.6750907859171
98.8621764234134
98.8955397349833
98.7929409562281
98.7925125372465
98.9949297366153
99.0126685618078
99.0394209684525
98.8583194245496
98.5841777541422
98.5288526633328
98.6852459126547
98.7450733314367
98.7370924060768
98.4876950245512
98.3898705265397
98.491207627237
98.4865673265906
98.4453368546377
98.4414953169674
98.6630627417927
98.8443049937787
98.6200395957051
98.3322535338405
98.4181319817249
98.7711978219954
98.731750212591
98.5647316428246
98.6089989285838
98.620877941807
98.3682750130991
98.3622402893418
98.505190048947
98.5807085711884
98.3816400249211
98.2852112837561
98.2935067429532
98.3019332392713
98.4123027431091
98.3769741632887
98.3672928604874
98.4409259069877
98.3885643422476
98.2869128462121
98.3416974044214
98.6175810122232
98.6036332398243
98.4986625720491
98.4113327211615
98.4383856292096
98.4382034610113
98.5396199313793
98.6400549089731
98.5696730459739
98.6376038774791
98.6258902298197
98.3106739864315
98.2989813927382
98.4068109164187
98.4926189060868
98.370689530586
98.2966668206504
98.4354683392522
98.4166251549892
98.333060693478
98.3778286652734
98.2942902412575
98.2986225682411
98.2286374617563
98.253225261972
98.363161106923
98.4908090759503
98.5389410375345
98.322401569968
98.2787085932612
98.5052007526985
98.3849512494265
98.3157101946887
98.3728094286677
98.427734384358
98.3561166571374
98.2896193634346
98.1555714996306
98.080115501532
97.979790150536
97.9886270570144
97.9813217024216
97.9194981324042
98.0182906869159
98.0536819174444
97.9443327359768
97.9899236215911
98.116120779663
98.2437999982783
98.2131879104613
98.0327173863191
98.0166616516205
98.0200190697388
97.9508520090437
97.9005074844231
97.8604346858513
98.0297262071127
98.0693300507754
97.9331438380083
97.8296236966509
97.9127279163513
97.9042795764373
97.8605378078719
97.8088275739716
97.8424041818404
97.9347313491151
97.9069204456352
97.8520502353926
97.6464700724777
97.6698785532894
97.8655872584496
97.8579298316596
97.8467796201853
97.8899684081034
97.8959345433003
97.8621994095231
97.8688656868543
97.79469543156
97.7886327798027
97.8002517587885
97.8280105471405
97.9550258783345
97.9775807388638
97.8160669599553
97.7881348864153
97.8597592534629
97.8692667551159
97.813511373571
97.7793708719894
97.8235399042375
97.847882094761
97.8068845329762
97.7508081489851
97.7385518718726
97.8199603985934
97.8673070059252
97.886757015669
97.8651530924953
97.7697177980625
97.6402665587288
97.7196541983475
97.7897791101136
97.860509899443
97.816614970949
97.7964831125841
97.8530536977941
97.8641249133285
97.8243966042402
97.9241753778362
97.9686559999878
97.8933446763846
97.83577120044
97.8762697916157
97.8165528603535
97.7477929892083
97.8152298326777
97.8717595713308
97.8420307247313
97.8132764507431
97.7469067281377
97.5717140695147
97.4844364612407
97.6164639971796
97.685761543872
97.7065925056673
97.7787095004695
97.895125079584
97.917333165912
97.8756840379409
97.7430164300263
97.736703586424
97.7176073227451
97.750645221044
97.7825601007125
97.8113720440056
97.8426133865253
97.869896533524
97.8297730117166
97.7680576676639
97.7536308751409
97.8219201775145
97.8329480580398
97.7681613595753
97.615452657446
97.5844471464626
97.6893628541454
97.6881448742224
97.4166924389908
97.3526080758948
97.6979846856899
97.7180745432962
97.7964229409578
97.8302940727149
97.8470170424649
97.8389808560972
97.6948924293419
97.6804634045478
97.7620505980218
97.778083684308
97.6870936434284
97.6565497806291
97.6588073692024
97.5322296115644
97.3786258784588
97.4768001518435
97.7148652115954
97.7872431742263
97.6528474316818
97.4613115886203
97.6100710451611
97.7457851158553
97.7180370491066
97.6970852039531
97.6659231284181
97.6963137902807
97.6827098777237
97.6228404189675
97.6385728412792
97.7103120782837
97.6711375025425
97.6868135982367
97.671928157647
97.6015494371646
97.5213847885767
97.4898281171167
97.6269041355086
97.6285097991555
97.5575684786083
97.6073536897094
97.663281083988
97.6738517694991
97.6585740540415
97.5831980842434
97.5158142460136
97.5860945538772
97.4904338446676
97.4813769546966
97.6812555570482
97.6697859547414
97.555295733128
97.5584853093485
97.6848058581142
97.5603008618314
97.2437582088872
97.3605016735433
97.4576749194829
97.6239454852515
97.7340241546622
97.737107666121
97.7150416434148
97.6459631636777
97.5161664182103
97.5486505499291
97.6767419929489
97.6557682261227
97.5647973390677
97.4454536651694
97.5545070269001
97.6045112791877
97.6335535364272
97.6109009826844
97.4939841498699
97.5220167041708
97.5319143853844
97.2176224705363
97.1024075670845
97.360047153805
97.6552758026718
97.7114650742575
97.4057685594188
97.4004156163932
97.6623643589094
97.6919396387632
97.6727519960181
97.59554264714
97.4367432801712
97.1214647175034
97.2547135887931
97.5569246379005
97.491037093391
97.4133836672242
97.248969351398
97.2169614611024
97.4749495077296
97.4898019923074
97.4510828093576
97.3218201381296
96.9830751709861
96.8925503060145
97.1912196330656
96.9940203822003
97.0487485950333
97.119633125434
97.2214985560267
97.2446216799831
97.0672586901992
96.8802031032234
97.033606002974
97.1453769636539
96.9166166486706
96.7064699210074
96.9781663119446
97.0230960563427
96.933258784728
96.7705771035536
96.3228666326349
95.926256300018
96.2352646094045
96.6557828639253
96.5806903958178
96.2982388580517
96.2750753209743
96.4631690357452
96.3757094800574
96.2617577724404
96.1699205528969
96.0238554012757
95.8115029381632
95.7246448247442
95.7242886218001
95.6208131495947
95.4878420675119
95.1434855807475
94.6891902683754
94.6678820810781
95.0695371558257
94.908634913227
94.7089835355378
95.044246374345
95.2494699255169
95.1911692764912
94.9556958266046
94.8147320374487
94.8739108229792
94.797631635874
94.4879433607434
94.2583317347838
94.2990850148947
94.2773906264483
94.5699741979966
94.5925984436475
94.1076233037206
93.4716109866464
93.6251635369944
94.6107773905362
94.5564178747681
94.2247664458983
93.7426632005771
94.2546664859158
94.930700346722
94.8745617759033
94.7382661265637
94.6072631523979
94.41473935927
94.3487031293021
94.2745984793878
94.2987383613522
94.3435347749837
94.0018931260089
93.3973367315594
93.1816138864201
93.9903455382589
94.5937666806477
94.3977834987201
94.1183755449413
94.236865429927
94.2934075188199
94.1293881994026
93.8082626308958
93.3275207952601
93.4917138464483
93.815898561849
93.535663477019
93.1732575748611
93.0202233160178
92.7757509030903
92.411362366859
92.6901494950733
92.6843801823441
92.4416817044343
92.1497021826948
91.8333584553332
91.3792674624609
91.0755986720015
91.1159228587737
91.0135379631894
90.7923233250897
90.4677323141949
90.2132582335416
90.0158977312708
89.7086594835713
89.1358551224576
88.3142613594992
87.6277414267057
88.0132439426264
89.5851769286879
89.8059228461008
89.5282500723721
89.0629804455003
88.6912194887702
88.6188472496203
88.8404661118476
89.6967533369108
90.0227046081976
90.0097849845072
90.017650652046
90.0736066203995
90.1377562872549
90.1929907759555
90.1125064261665
89.9075823228905
89.712217929562
89.2347719933161
89.9886929899064
91.0728368352099
91.2337632717977
91.2514643386712
91.3010640304458
91.2951131448047
91.1552694074917
90.9161738117236
91.0514769915231
91.343810197921
91.3014008586654
91.0676723305937
90.758441749286
91.0603063518571
91.3817653357572
91.3996850353024
91.3934928502364
91.2804216702869
90.9810904546988
90.5195921247046
90.6900753080773
91.1486165112226
91.0879550336205
90.9129936687582
90.7136276161459
90.5355558756999
90.2682780073571
89.9230557839684
89.6838383512557
89.4664424090334
89.2495451864773
89.1322047071071
88.9901121972958
88.8295596647264
88.6879546905844
88.6756454903597
88.6461123722425
88.6420025680269
88.6640806390206
88.6694522783189
88.6736777431196
88.6560956378406
88.6267625179892
88.5750779923397
88.6192443497635
88.6996745530171
88.6963738912246
88.7216633563964
88.7374784897398
88.8046462761304
88.9204860922759
89.0085446929267
89.046837164893
89.0796346168782
89.1348062207672
89.1758570902871
89.2186281933632
89.3042744201494
89.3921170385168
89.4729436798282
89.5351655858566
89.4448628481674
89.0242032181506
88.7377369510482
89.7178099853328
90.416185210371
90.5726691090764
90.6885838336842
90.6764195042086
90.3702588728868
90.0524420842695
90.5229434558273
90.9657176024217
90.9836629821287
90.7748213164578
90.5755053457976
90.7125323499984
90.7540165715625
90.5330214482959
90.0796752408813
89.2768194599986
88.6862499730228
88.6218124446365
89.6926847186993
90.5335206903601
90.2350975408936
89.6452039209096
89.6526761889373
89.8899515881521
89.6500338714637
89.1599675858162
88.7142918012097
88.9197400450353
89.0752715014738
88.8818239904222
88.508596554753
88.0303577245864
87.9769662847565
87.9294795553086
87.5359472651719
87.4340663565413
87.3438219159183
86.8013178068222
87.4893143493777
88.9289566336022
89.1660389793777
88.9002657051578
88.492682594445
87.9642052131439
87.8440387800728
88.4024977398797
88.7045575674818
88.9033064287607
88.8484117119544
88.6113341932465
88.5872886625538
88.6442672282357
88.509917817451
88.7112598225518
89.1789979226931
88.9417227482429
88.5044161893827
88.3549733909938
89.2701532099085
90.24911087907
90.1209125318591
89.5612829283307
89.7309157464323
90.3694644007243
90.6881389462147
90.7938558761692
90.5697481378739
90.532532723064
90.6898196303926
90.4523919498766
90.170002385764
89.7956250632069
89.2008953143819
89.1421382227042
90.6930875988576
91.8423322609049
91.9528031278656
91.7803533360939
91.7117151708074
91.7130497862307
91.4905599997023
91.2741107422469
91.4829850106054
91.3936828277759
91.3442024855026
92.0224443722006
92.2909145217298
92.3398996898108
92.2861956489482
91.9714063490836
91.6163292768441
91.8621606615782
92.4381771032711
92.6728295517167
92.99102762297
93.5126258327891
93.7294921667332
93.788676983982
93.7554816365896
93.6506898084034
93.60265707553
93.7419067282241
93.8111879584201
93.7805548533239
93.586327926545
93.3726174970297
93.5441253242336
93.5928022652281
93.177219076106
92.9387140525517
93.2167286628557
93.8550255926453
94.0627945830929
93.9775742252025
93.9168676167339
93.863399596204
93.6779324367704
93.3841659857998
93.4655441615918
93.8324917408154
93.8824349925564
93.8524010872688
93.7530326341445
93.5058344489785
93.1537149708327
92.8299765326517
92.656092167007
92.9842536391499
93.317100489803
93.2885608554016
93.0685712560852
92.7319291401654
92.4713933261959
92.2208735695507
91.8341517562538
91.369864732351
91.1251833637341
91.1772696023884
91.0644626171913
90.8959999157846
90.7565330814529
90.5730047602421
90.3519969479124
90.0995233012283
89.8318186019152
89.5397019013692
89.1095798814236
88.4951980021139
88.1245623929248
88.3628150180449
88.2602076969069
87.8713581872834
87.5307312101167
87.2071608273092
86.7681482719867
86.3314751983216
86.1274609973509
85.9133726274144
85.5815310955136
85.2458014648597
84.8059888556219
84.2809802213239
83.9949014664568
83.9582133261882
83.668132857316
83.0821215250623
82.3893742405059
82.2182680110302
82.5117479780116
82.5427167256253
82.5509456876008
82.4914719965864
82.3870176989808
82.2074335042103
82.0029518656639
81.9038541089527
81.9035241433655
81.9280206455151
81.9941055432337
82.0758937600645
82.0685906160345
81.8554296467618
81.8096381513368
82.2627618449573
82.6100731529458
82.7842814127077
82.9008155775361
82.773272539138
82.6204040964329
83.0170873090964
83.6271183211343
83.8568206626677
83.7861645569401
83.9548113079162
84.7022374671749
85.2261663460818
85.3855059079259
85.4717934436918
85.5671435469643
85.5052920735057
85.2287605748725
85.2100518004386
85.7625089891759
86.1668679368806
86.3328287400126
86.4345097970906
86.5142812426746
86.5721200197296
86.6238218612896
86.660380327247
86.70866163147
86.8417898146557
87.0061072099028
86.9983359370925
86.8525069381241
86.8553625743923
87.1901735372667
87.5491956166299
87.7409662207301
87.8126358887922
87.7458188345742
87.7281941275552
87.9147994119279
88.0769512352756
88.1935186397786
88.2065310667613
87.9798915297273
87.8883160668596
88.1987371701688
88.5082850923558
88.8091069206016
89.0034580111389
89.027854961525
89.0746847175243
89.1005971004691
89.0882416316433
89.1314715138767
89.2309543102181
89.2901487739908
89.3427873899434
89.3746388738769
89.3651399087397
89.3892063910982
89.4705894479635
89.5269076915201
89.5473907548094
89.5820773979188
89.6426292428968
89.7191642422417
89.7930415853091
89.7373935110353
89.591646606549
89.5783736920666
89.8414070618732
90.1311435368604
90.3003330553674
90.476872595643
90.6307319493793
90.6813539670155
90.7084420119257
90.7533506441504
90.807999005567
90.8556824801807
90.9130459886833
90.9993011317186
91.0823477109554
91.1597958321016
91.2250896430242
91.288385840217
91.3505957724202
91.4212967281053
91.4713308226151
91.4920015132194
91.4845424999833
91.5005944028201
91.5565786507098
91.6107819617541
91.6767889137853
91.7317242725684
91.7311914311696
91.6953386447588
91.6874696756195
91.7478034656141
91.7839270981775
91.7646531591707
91.7308620880375
91.7106723925888
91.714974024991
91.7151707427763
91.7365233783716
91.7920824169659
91.839519073744
91.8955198642629
91.963698900542
92.0340293326415
92.1063219456233
92.1610308717191
92.1749028388114
92.1866305124628
92.2094033329746
92.220309097302
92.2262509099855
92.2454906998181
92.2407885633997
92.1910818895885
92.1609529198733
92.1437146955904
92.088946534338
92.0426847140661
92.0312813637474
92.0243780160884
92.0097640349471
91.9829858784733
91.9351293312835
91.8858499621276
91.8465392464663
91.8044694205558
91.75953890305
91.7236270437536
91.679669827943
91.6474297760696
91.6207117805316
91.581672350863
91.5342104037723
91.4648531996073
91.424972282094
91.4069462548729
91.3776625197425
91.3446910669867
91.3277906798174
91.2874648417676
91.2165778985555
91.1715229731894
91.1568407544396
91.1271162534952
91.0584776069975
90.9541700344578
90.8542405980309
90.8136220899099
90.7886676230724
90.7264943965625
90.6406737561363
90.5534464900925
90.4668589006231
90.3718009831443
90.2770568206922
90.2148521388887
90.1642190468092
90.0888346151227
90.0155915909637
89.9603401133285
89.9038606792914
89.8547978226317
89.794654593802
89.733681251641
89.6896466530551
89.6530572641904
89.6166951044866
89.5676053370058
89.4963883200084
89.4308262994308
89.3748542362502
89.3110808219308
89.2534356243583
89.2060161968433
89.1528755153335
89.1052513547739
89.0441838473772
88.9739036433769
88.9048209973261
88.8408354394258
88.7800515646094
88.7108922971329
88.6296277229892
88.5408159791309
88.4590403284103
88.3724360199284
88.2942664826239
88.2359615303591
88.1970005425709
88.1773196348509
88.1561566088135
88.1340991384817
88.106422969212
88.0844118877716
88.0792024281913
88.0695276779195
88.0413790249227
87.9944334241452
87.9687187951636
87.9710340613583
87.9745641049312
87.9660390390145
87.9509761667782
87.9539148292315
87.9692500169107
87.9769888890696
87.9790497529787
87.9798360261181
87.9731157858823
87.9550931967143
87.9319591528774
87.9188175028859
87.8983483372044
87.8722742379565
87.848674002928
87.8136063159948
87.7708942702822
87.7299025872997
87.6817462677831
87.6119802508704
87.5153261224983
87.4058082362251
87.2927838097749
87.1787359098248
87.049734144896
86.9128846691659
86.7944695585443
86.6829848757185
86.5541210621603
86.4056359870381
86.2483955523448
86.1005041981198
85.9499023632785
85.7816426781788
85.6237391637233
85.4961836415985
85.4049495436418
85.330668491534
85.2703611281592
85.2609819919521
85.2727324159101
85.2723088395867
85.2729561750688
85.2738032852842
85.2462424422864
85.2003499564407
85.1371082477916
85.0701721289464
84.9941807197315
84.9053467788585
84.8026741053779
84.6718400796262
84.5230970690428
84.3563825632321
84.1623074986549
83.9881774729745
83.8142100344912
83.6083727866946
83.3991742335119
83.1933783714632
83.0002795826652
82.8013643164618
82.5818654807214
82.3592903251161
82.1432506763829
81.9422400302794
81.7463628147937
81.5271579617703
81.326821359282
81.1441957970082
80.9498503532067
80.7630984492008
80.5706127721157
80.365852971666
80.1638925568131
79.9755482127496
79.7919218423748
79.6148513314704
79.4287665580618
79.234884484462
79.0525587251886
78.8915240560571
78.729086793479
78.5847702115403
78.4745135921355
78.3635299687441
78.2552483606093
78.1742687033824
78.0973874328258
78.0266397371103
77.96668429884
77.9003301513714
77.8330394532031
77.7792050249388
77.7280260261078
77.6735547280064
77.6194020296725
77.5965896330775
77.5698538124142
77.5292683052278
77.4991511973336
77.4666566906167
77.4463747048349
77.4195429041715
77.384597068819
77.3642969483433
77.3416184610132
77.3079333120758
77.2619048503331
77.2016532399931
77.1394260382861
77.070504892099
77.0165360561284
76.9419670060033
76.8725659830039
76.8049842619648
76.739310178506
76.6936247752715
76.6793207463939
76.6847682520725
76.7103501574821
76.768782269375
76.8353831624105
76.9125441674257
77.005662763129
77.0836951316188
77.1712610301528
77.2611054393967
77.3496628426503
77.4359994727594
77.5071146512986
77.5662546555492
77.6155863711924
77.6581370497791
77.6789903028555
77.6858351558204
77.6876214059787
77.6899761029273
77.6950160499469
77.7229404628108
77.7560930853747
77.7797130295878
77.7773411568762
77.7750768531543
77.7892369763504
77.7933218524181
77.7780489288395
77.7621218120381
77.7294792257796
77.6849148806459
77.6354608763627
77.5844726977206
77.557897954189
77.5452315776852
77.5576011503153
77.5933115330978
77.6201039781013
77.6399295488067
77.6680486221153
77.6926268752846
77.7136956683428
77.7526388590931
77.7992522823784
77.8464686281443
77.9018363488436
77.9540653159288
77.9950730755455
78.0278514086908
78.0751908390399
78.125859695571
78.183819659163
78.2369264393738
78.2972512853693
78.3534098811737
78.4080700656231
78.4839549381502
78.5292377505446
78.5627124820139
78.6202029010599
78.6802198855179
78.7446858711678
78.8210273088525
78.8907455963591
78.9428092985078
78.9965358174331
79.0799100695246
79.1708998201318
79.2385168287923
79.3124984400585
79.3678374350077
79.4228388555729
79.4948051669891
79.5675208522534
79.6248299788625
79.6791348917772
79.7068610740523
79.6703453666245
79.5993560258345
79.5209688282697
79.4102610277507
79.2944799953664
79.1735446696726
79.025135668426
78.8381346338966
78.6394733888081
78.4732120456238
78.3705980504675
78.3413105703666
78.4034475858408
78.5218841880423
78.6610978948948
78.8058748262462
78.9419676305596
79.0662248333479
79.1586169151656
79.2046660537908
79.2694381961585
79.3127686739449
79.3258227188261
79.3391204764118
79.3231481272119
79.3220079642038
79.3102240379797
79.2497843410534
79.2014101692143
79.1808052910585
79.1523317412542
79.0797873958072
78.9648495660568
78.7842534082034
78.5763276850115
78.4237887944127
78.3581104696208
78.3686922736249
78.3958134881921
78.4462595334863
78.5138302678282
78.5909196753977
78.6686087563951
78.7156355596662
78.7476385811052
78.7828223575909
78.821462926583
78.8224798055313
78.831737797996
78.9067990544461
79.0388419503935
79.1625445177422
79.3342989844893
79.5782248189709
79.8286357636258
80.0773228715474
80.2999302378291
80.5125008035058
80.723761846084
80.8834158520477
80.9904798153164
81.0255412112226
80.989874672287
80.9178950579541
80.8197309452471
80.7159860405541
80.6728605293024
80.6834477903934
80.7441869302782
80.8763525298915
81.0817413124192
81.3332760649015
81.5920316327495
81.8913617159556
82.2540458598777
82.5936254758866
82.9156059130671
83.2069037491393
83.4816171098245
83.7532379903335
83.9938545303781
84.2130947936109
84.3993925897053
84.5661268060804
84.7318014885802
84.8992008575233
85.0558571269776
85.1852356427573
85.3391854979138
85.5017889506984
85.6340167250367
85.7341183581449
85.8331556881484
85.9542895827654
86.0854011978408
86.2018831156029
86.3056178051684
86.4094978426819
86.5211688401662
86.6573262669549
86.7594471726777
86.842162208692
86.9867140430232
87.1032731105526
87.2054280288599
87.3187143700624
87.4202242850755
87.5080003908982
87.5953467130699
87.7173006171917
87.810896860276
87.871351437004
87.9449321059007
88.0314981727841
88.1119427081649
88.1783468295503
88.2776773426712
88.3529369770282
88.4198190415196
88.5012102484994
88.5753711293819
88.6287314012521
88.6900936862895
88.7242028623086
88.786805464811
88.8255913343043
88.8574028637127
88.9148041739485
88.9754621459406
89.0214353986499
89.0729407500309
89.1028424984512
89.1534974871485
89.1996548285273
89.2150070638236
89.250061221043
89.2792053123596
89.2893961361893
89.2965567643493
89.2991394759418
89.3382459641639
89.4011335531932
89.3994002675261
89.3659855309817
89.3505774231741
89.3425263302277
89.3068984747479
89.2651189585201
89.2889884912472
89.3106699009223
89.2740717925384
89.2031969684175
89.1409563522649
89.1112450010313
89.0307075766676
88.9594968795325
88.9378672348256
88.9069792808944
88.8420753552583
88.8057754534812
88.8022467494008
88.7195135270776
88.6201164571173
88.5569513086357
88.4318421753734
88.2921451250416
88.1888784100658
88.0909493467314
87.9895860418202
87.9102027449922
87.8643100058392
87.8175127772501
87.7896653652203
87.8303043283046
87.9493320743097
88.0628711340879
88.1668805557964
88.2805908990642
88.4126459922499
88.5261775867839
88.6214969109642
88.7221941412703
88.8275185644115
88.8947615422505
88.8929542774157
88.9111435011387
88.962270386073
88.973261202779
88.9446166756632
88.9536799139366
88.9382209544218
88.9291198553766
88.9204521543549
88.871644147053
88.8236845890287
88.7852059087513
88.7676834130778
88.7054477982482
88.6422947013607
88.5437764709238
88.4690992420868
88.4264039293489
88.392265849017
88.3557520471866
88.3065653381251
88.2736889637386
88.2383119527091
88.2216239883775
88.2613378509855
88.2859013392339
88.3012361115799
88.3114941080865
88.2639346767346
88.232497239022
88.2143760101712
88.1453870837695
88.0534889883963
87.9496195188094
87.8997270075241
87.8251865149744
87.7791469887988
87.7251761878125
87.7032650263202
87.7302889555425
87.7180856503472
87.6946010922474
87.6711474331926
87.6144255064879
87.5186218024324
87.4189189796952
87.341226036243
87.2350583945382
87.0732615953796
86.9174754857165
86.8135206414704
86.6669650602933
86.4623893174911
86.2278117047707
86.0772935586626
85.9226714845685
85.6361599560252
85.3661740876075
85.1531826515833
84.9833551535712
84.9156362403897
84.8574104335972
84.7789749846944
84.7232788608435
84.7158042302511
84.755395763652
84.8735776816674
84.9583610940902
85.0372047336292
85.122880773847
85.1224804142693
85.100418450068
85.0473809726844
84.9670986492187
84.8660895619281
84.7682934921971
84.6612507234823
84.5394999820991
84.4717326415568
84.4586264986379
84.4251268664427
84.3786421116751
84.3251475916437
84.1837875770362
84.0563487029475
83.9962898645339
83.9282332178961
83.8262792892397
83.7673829919318
83.773268560964
83.6970360867771
83.5495238329494
83.4880742185795
83.5541799813694
83.6441538767608
83.706954254056
83.7541475228458
83.8001965395215
83.94033338029
84.1561995838737
84.261603290237
84.3215424685417
84.4565635671479
84.5397055978459
84.7323876952774
84.837205516854
84.9105757956466
84.9894904658802
85.0799341634382
85.1787931416062
85.1532080562966
85.1521364148648
85.1804389542407
85.1875024686794
85.2133022269597
85.203087318658
85.1226896095783
84.9586995749048
84.8289915792663
84.7686957279348
84.6872825501277
84.5283367977516
84.4271325692315
84.3995590242561
84.3064782667967
84.0992312785043
83.9487855564037
83.8647391547035
83.7963484201788
83.6066351629931
83.3735501001837
83.2451580901021
83.0905447817385
82.849429289969
82.5660465431319
82.1973321517392
81.9477133094503
81.6379656796876
81.2215926061222
80.9262038348286
80.8461083595796
80.5377598051118
79.992118468045
79.5224733202449
79.0059001563472
78.5761175633675
78.4203957664279
78.351033058641
78.2359733045626
77.9779306685353
77.8311089850549
77.9229861051607
78.1764552725916
78.4735664623672
78.6283831524612
78.8089144940913
79.1334887637877
79.1163346113549
79.0556852003973
79.1330385800563
79.3106456476004
79.5276831016617
79.5310623730509
79.5680977036139
79.6660014371421
79.7658564827509
79.8414920328849
79.5659688640739
79.4815865928234
79.4567073305318
79.4391652125326
79.436332026911
79.2948073749279
79.10729635872
78.7938948981914
78.4386504749577
78.552492539054
78.6137778996254
78.2733043021411
77.8260393817132
77.7501147518399
77.8504676095813
77.8580261992655
77.4891898645937
77.495989371087
77.6914170191164
77.3513457833484
77.0960185787342
77.3203199957153
77.2518248330436
76.7418482600708
76.6202502266456
76.9936727122346
76.8614876086333
76.4747292353545
76.1215912316777
75.8562253603056
75.8545147279169
75.7860649251243
75.4555074316626
75.0914605181324
74.5460771552827
73.5032821637105
73.5615484525545
74.4448432671686
73.8192275521829
73.03835419133
72.7429279649102
72.9921486825553
72.8827222109479
72.4882292443404
72.4410850290821
72.7357121349183
72.6012877067482
72.0654608933505
71.5352239149583
71.0591373008707
70.7912584846976
70.6911559177653
70.4477075301508
70.2680616967774
70.1994852689722
70.362365705575
