3596
4000.36533379555
650.420452594757
1
128
2
94.6066294180422
94.5621939779657
94.5614809980796
94.5569921746803
94.4564213745709
94.4522404917037
94.5011687163887
94.506546206626
94.5394723819385
94.5727020387119
94.5313048219962
94.466896163328
94.5140508856224
94.5911282538341
94.5738437080996
94.5344241118683
94.572204813098
94.6310264349663
94.6332098144042
94.5705715071954
94.529498537435
94.6159798415049
94.5614025937417
94.4614610715803
94.4634602925844
94.478925635168
94.4675956639676
94.4508008802878
94.5095799561005
94.5302352163439
94.5555097151075
94.5768341119068
94.4834538015478
94.479063832502
94.5397875663629
94.6021975753096
94.5790890841095
94.4925618134894
94.5066330628266
94.5014116718626
94.4657442038987
94.5378163508969
94.5936984658009
94.5693987455404
94.5322746884808
94.5273932668726
94.5365566955215
94.589997448985
94.5414970039959
94.4249230630751
94.406817850439
94.361841757446
94.2428603030287
94.2970738553986
94.4668218192118
94.5265125145716
94.4249956917012
94.2379037070647
94.1872440560105
94.2872603446443
94.452949523105
94.5841428781357
94.5878082775192
94.5872196608621
94.6045823063096
94.6534221492232
94.6336218463097
94.5215023793131
94.3907263765561
94.2947659423056
94.341351943822
94.4191886285726
94.4234293312581
94.4192783632098
94.5230264668734
94.5289748199538
94.3833730240818
94.2541369233308
94.266504919003
94.4236072677092
94.5565466617278
94.4768891371658
94.4130824520211
94.4298880094456
94.3330967916389
94.2411737582063
94.3022748434641
94.3937317089822
94.4797413729965
94.5647578752679
94.6152628854581
94.6399338793533
94.643283996413
94.6715746069109
94.6463343734395
94.561540973278
94.4814259076848
94.338998184466
94.1665528409032
93.9294781001612
93.8716916046164
93.744728275003
93.7778494342512
93.9822334986429
93.8693143860606
94.023990908722
94.4035412558856
94.5929137418869
94.6603325060866
94.7450417980839
94.7472494820536
94.6335378515651
94.3919883232086
94.1536199723544
94.3074642199773
94.5356449791447
94.6399939401085
94.5978967995887
94.3345407586262
94.0689370711455
94.2251407725872
94.4173822304487
94.4702631753438
94.4215724077536
94.1706417761129
94.0098364855026
94.3013150685884
94.517374538234
94.6048999609303
94.6721477846308
94.5728352244615
94.2868985818076
94.3452130234446
94.5239533572217
94.351149784418
93.9977458018512
93.6829358679726
93.911463547322
94.4272875966918
94.5773578886454
94.3585008599876
94.0394591109114
94.1039766329439
94.2867686875778
94.2811280355295
94.3833511694627
94.6532141439616
94.7568389927179
94.7584686513402
94.637560390751
94.5391190869804
94.3922116509547
93.9521816140108
93.474715001833
93.2152193784908
93.1735283297891
93.6948829971796
94.3558005003275
94.5824149402621
94.7234914273989
94.911907861647
94.8754887695846
94.7804988590306
94.6714622624646
94.470670804771
94.425578326612
94.405424143996
94.2707880216902
94.1920175126799
94.0525719123815
93.7836880043161
93.9381779332838
94.2800434072998
94.1996430397572
94.2381495010775
94.5598676607328
94.5858124033459
94.3967001631356
94.4734566466691
94.6130782130514
94.6336558594924
94.6054474769171
94.5561825056936
94.5477154302075
94.5834651290244
94.5413168123991
94.4313016469034
94.1705370820961
93.7836656689493
93.802982962958
94.3037178686178
94.4411360193187
94.2581280771439
93.9773141911007
93.9556425633303
94.3859565296351
94.6927193833165
94.7879182584996
94.7654669403592
94.7214240026128
94.7494171677138
94.7905779110566
94.6045528869843
94.294942440006
94.2244732008052
94.4572032811505
94.5806648837862
94.4996241958794
94.231079220483
93.8725840266913
93.7171071697495
94.0291873489628
94.3238347467352
94.3878287754949
94.3244523125946
94.3728096435649
94.5063595881505
94.6114019725164
94.7255008895069
94.7803872796137
94.6701278405593
94.6275895977897
94.6398229312395
94.6082755539539
94.6354179966975
94.6184851833577
94.4745277238939
94.3873908689663
94.3996949928386
94.4429946983489
94.4407477011015
94.4091841133204
94.2747754247167
94.0770251001804
94.1184816689338
94.286079274276
94.3964578753758
94.4152517525049
94.4466672196121
94.5008490540201
94.5160883952208
94.4519345245014
94.2508050933018
93.9754997525117
93.9330237583583
94.1783519124639
94.2880993730831
94.1853738063277
94.0615109502999
94.2577201414249
94.4097890097451
94.4269652893968
94.4248192718356
94.3587311039601
94.1761199820495
94.1566979855258
94.2454603178268
94.2052260601039
94.2403027692362
94.3973065864687
94.3893281568859
94.2041531304349
93.7822928002649
93.5501720771796
93.5595105463838
93.3015146028852
93.5548979654043
94.1191559474017
94.3253156524304
94.2342860536496
93.7936504861477
93.6379238825405
94.2185601406773
94.5678234831556
94.6412931589805
94.7939452532198
94.8792258764756
94.7653529300021
94.5554025321199
94.2087108335195
93.8712966056895
93.7003596966782
94.0544094157013
94.308520901165
94.2405809664005
94.5700777318458
94.8573710828905
94.9218329650632
94.7943748863134
94.5979404305859
94.5086078391301
94.5005858709504
94.5294300092236
94.4873172778624
94.3273738853782
94.34006720566
94.6078127320899
94.6529868315644
94.5438706198105
94.5585896341291
94.5853162187515
94.5648500256901
94.4965428290664
94.4581729767015
94.3940203265855
94.0080450526575
93.7449610470526
93.9224797504809
93.9642985412351
94.10956087155
94.4656989156225
94.6360039156801
94.6738368632669
94.7276190683884
94.7489506391455
94.5872606884473
94.3720448188637
94.2938035963893
94.5280425103969
94.6862896501645
94.640647693667
94.5430264451949
94.5351239018969
94.5784256245607
94.6055255808805
94.545283592322
94.3881340024286
94.1049357905882
93.8537544896167
93.8685112109737
93.7533373753897
93.6217576353865
93.9987746128794
94.3168690391574
94.5401342245436
94.6994542566089
94.71196948479
94.7411042292203
94.7643615366075
94.658088425234
94.5445951161214
94.5517810830049
94.440518124329
94.163333695672
93.708343282489
93.3058246355769
93.6351046635793
94.1750156949675
94.3254156766195
94.1679406391327
93.8267543918069
93.8713299199834
94.1045638448333
94.3490101657843
94.585781595496
94.7527182013205
94.9037712906158
94.9521353408268
94.9357296218422
94.8573202065727
94.7854687361427
94.7568406461324
94.7297770638825
94.5738385095776
94.3758513915175
94.1899433640871
94.2127768233689
94.3572004795205
94.3921166730259
94.4052192636543
94.2584365448109
93.8137689239177
93.4269293896542
93.2308102684156
93.3041285520754
93.3516781866469
93.6773999369357
94.2664175083165
94.6321517603839
94.8092673895601
94.7334928425456
94.6955122767655
94.7196966755742
94.7113097600601
94.7151612721151
94.6836244305201
94.7164860112812
94.6597219846998
94.5135245699439
94.4212604222973
94.4033407441555
94.4581593384316
94.3784132342499
94.1046657398034
93.585347391197
93.257548054937
93.5705790427109
94.0026017516082
94.1749583945124
94.3635619014828
94.5544713745438
94.6248987293082
94.5180949857045
94.2976835974108
94.1234299427721
93.9828572272237
93.9447849831013
94.028328819001
94.1786392264722
94.2431861973464
94.2285053400493
94.2244067968701
94.132025246468
94.2247375931983
94.398136728339
94.2994899229399
94.0889117862394
94.0638260364168
94.1694553950748
94.4000994988699
94.6459934299526
94.6394631577158
94.5773463154238
94.5507003399172
94.5101454335226
94.4206052971417
94.4174629155479
94.4488612934569
94.4676518142363
94.4436108448181
94.2353583539748
94.1549177565222
94.2360239577626
94.1460360577004
94.1796985150057
94.4007558506914
94.424217448974
94.2795661086702
94.0019667486499
93.697537388822
93.6291335479012
93.8568704096407
94.1040929858682
94.2002794596262
94.2927243477953
94.4004826016917
94.4454572871543
94.4278132453497
94.4606750387202
94.483439287822
94.4673478849559
94.4268686699151
94.3618489960266
94.3306485489933
94.3403519019156
94.3442695074659
94.3390935892591
94.3413124930665
94.2707445969208
94.0143436174469
93.6609283266742
93.6196492598658
93.6810797895415
93.6979069936069
93.9461012168492
94.1784519643647
94.2063397247556
94.2254691871832
94.3560928849709
94.4506800975696
94.4268452007865
94.3669803773315
94.3870876682142
94.4958959059821
94.5589556478251
94.4126598434816
94.2336937436978
94.2104512530081
94.1550330232927
94.1519741558369
94.2320313727267
94.2243562502472
94.1592302719247
94.1220545262104
94.0472920498375
93.8922502697093
93.8914894223984
94.0638087616171
94.1828970477894
94.2230751662498
94.2590283909392
94.3257344243344
94.2567797114167
94.1353570076316
94.1110213820511
94.1552696440479
94.2071562272607
94.2627320095095
94.279235338081
94.2095945937951
94.124931446331
94.1237683324761
94.1045976046418
93.9944861327277
93.9824444117544
94.0515778062788
94.0258942192978
93.9231708778269
93.884356420421
93.9089234421416
94.0122735259837
94.1855610558521
94.2798298352315
94.295264437105
94.2637263449144
94.2218325799879
94.2195238390066
94.2210093206177
94.2031048376096
94.1832466840095
94.1397196799575
94.1277739627539
94.1272997850753
94.0336830453233
94.0189684098566
94.1071600639995
94.1237470395078
94.1078045758677
94.062420304218
93.9783948277671
93.9571675555614
93.984160042951
93.9527818397725
93.9777897029916
94.1412569980677
94.1998473938783
94.0650413842287
93.9469035519923
93.9729365607247
94.063408832401
94.1238013482343
94.176634347638
94.204360700236
94.171288724437
94.1211104867182
94.0872631468379
94.0097653453274
93.9756162295228
94.0210364729623
94.0199377495125
94.0151955698284
94.0598150620064
94.0351351188861
93.9593025596806
93.9318150810144
93.9456597840082
93.947285770922
93.9963153734313
94.0556794306025
94.0058716352735
94.0256738449922
94.0753080343421
94.0513349610527
94.0299238325708
94.0117793452737
93.975185744331
93.9899931847172
94.0093972750473
93.9522436876184
93.9444362936188
94.002024656174
94.0343850137019
94.0588231969526
94.0410312768031
93.9311165703768
93.9316689806467
94.0035587413823
93.9783089754523
93.9440826120003
93.9740799145644
93.9586444750154
93.8674635513263
93.9042750050616
94.0224073295849
94.0094039638677
94.0036007671153
94.0689562458908
94.0389630210208
93.9138606133831
93.8451950805988
93.8221035476701
93.8337274173243
93.9150238728433
93.9811601466333
93.9483887768565
93.874726899303
93.9338564830492
94.0166534420262
94.0098665379666
93.9916306150759
93.936167206799
93.9211326399089
93.9553273394419
94.0000995966023
94.0342006582649
93.9860533121593
93.9329218215426
93.8822375869284
93.8879893391962
93.9247282263891
93.8599554171669
93.8507189111354
93.872312766342
93.8580846403753
93.8417339011087
93.9076451535124
93.9908935304444
93.9708324566341
93.9094327126954
93.8727049233078
93.9489461578997
94.0262280302669
93.9611138132088
93.8879232983482
93.8930365576224
93.8748492646251
93.8578548998806
93.8840062080742
93.899618428711
93.9471219426416
93.9534333130354
93.9357431008131
93.9465476040504
93.9640684761473
93.9231912934089
93.8793236072062
93.9124355586966
93.9059077129797
93.882947386029
93.9237289244382
93.8863129085303
93.8187839984638
93.8244285734852
93.8122034444981
93.8471699743636
93.9390057369013
93.8970042936931
93.7899070960113
93.8368010564071
93.9278946175805
93.9029016107122
93.8954198952193
93.9738537923674
93.9979945517911
93.9636108780723
93.9405408685367
93.8842513401583
93.8863598675671
93.9117169279019
93.9077741396434
93.9039252774082
93.9285103619511
93.8984997977274
93.8710379742993
93.8788004027931
93.8206194019039
93.7574027044256
93.7857593295478
93.8417210936856
93.8665328920589
93.8344799118561
93.8072057317986
93.8184872406849
93.8090318252937
93.807816767981
93.8417612513014
93.8547879388353
93.877955125016
93.9015518473268
93.8806644935
93.8630822439497
93.8730216603678
93.8457253566592
93.838774409691
93.8619001281243
93.8952889082432
93.879777274672
93.7809386565449
93.7874485978831
93.8374351924053
93.8332078330872
93.8155714023344
93.7821702818324
93.7856970814439
93.8293115738305
93.8531664742377
93.8834531568819
93.9143776154899
93.8952810589507
93.8293602948124
93.7691461008432
93.7166759034616
93.7042250378771
93.7533991680163
93.8166763182946
93.8923231405652
93.9023196537958
93.8718173759533
93.7932747148158
93.7397140037982
93.7606171390544
93.7425580491714
93.7379182156744
93.8119361420862
93.8876566127992
93.8800748490622
93.8585749018857
93.8256556716866
93.8185764187814
93.8001657981473
93.7264830013201
93.6951522108014
93.7484129708696
93.7396430047757
93.6975301274465
93.7374641285254
93.7869270622126
93.8398085589055
93.8566757802077
93.7852188517203
93.7661935592067
93.8193689058595
93.8397891910326
93.7564865244087
93.7082448832866
93.7119603553439
93.7313076257951
93.766482232978
93.8373908213215
93.7941525418477
93.7137240904364
93.7739104298615
93.8073355484311
93.7847206068106
93.8497706142855
93.8985240063186
93.8194449600294
93.7502652828961
93.8344011738569
93.878565849689
93.7555738575447
93.6861463346859
93.7312143543794
93.7315832899952
93.7225857466186
93.7793373946318
93.7931224084372
93.79308128235
93.7631047554101
93.7255497418933
93.8186211635823
93.878514285627
93.8284645785615
93.7769382728772
93.7532922647474
93.7715210000525
93.7751918758253
93.7688375472844
93.7740842174484
93.7505492909095
93.7158315449035
93.7928854949031
93.8527280212307
93.7745748255041
93.7324973225024
93.7469741433622
93.7694471399957
93.7765263009773
93.7447325806211
93.7152595881208
93.7001389143215
93.7299139064219
93.7900678244536
93.7824105956845
93.6966849191012
93.7460017858252
93.8044285828067
93.7534012471163
93.7378259244731
93.7072934989314
93.7223796654935
93.7987299812133
93.8325582175644
93.7906159808164
93.7973206139955
93.8257344212834
93.8132089998233
93.7606006631402
93.671783566554
93.6693012773485
93.7424725668719
93.7593216951577
93.7424501399369
93.7552143358126
93.7643941452776
93.7229757900424
93.6970404467759
93.7254711667723
93.6951550651909
93.659189518455
93.6898752616215
93.6964303423828
93.7014600448097
93.7106817197211
93.7134983547374
93.7365066427403
93.7279653429896
93.6852701926667
93.683577022763
93.7055469934563
93.7043148863041
93.6940646602224
93.783614079818
93.8108090416959
93.7933565857548
93.8057500449876
93.7443668457761
93.6969761104178
93.6965328558598
93.712412199786
93.7276379645182
93.6788456181048
93.6362895680193
93.6768453807935
93.6517448847417
93.6012181312648
93.6173113423709
93.6256541877819
93.647452995734
93.6892045432727
93.6991154651247
93.694156463573
93.7467609528011
93.7114256833279
93.6159940576621
93.5755890908732
93.5684381627752
93.6551458551635
93.7003781590482
93.6911848546834
93.7442543338049
93.7789875194362
93.7432500641832
93.6527711033458
93.595646527278
93.6270073122721
93.6693285607491
93.6787278396278
93.7118306573583
93.6959345397516
93.6305069602086
93.613267120158
93.6040649987639
93.6352273174001
93.6345011766901
93.5819328520534
93.6142890734431
93.6348991957725
93.673405074103
93.7235755180394
93.6900029640508
93.6955544667691
93.6886928599342
93.6637972143575
93.6173143020702
93.5413282740199
93.5079300580102
93.5446391852717
93.5768053052456
93.5501669989792
93.5316439147785
93.6020409322234
93.609951774541
93.5556797672788
93.565341327085
93.615464387321
93.6571114811009
93.6422538383556
93.5958470723841
93.5866947996825
93.6086996102919
93.6366480665749
93.5919139908663
93.5379867630936
93.6034648893077
93.627435439981
93.5739763591439
93.5803422510841
93.6230392245102
93.6187570960727
93.5646074297822
93.5723847390065
93.5979559175669
93.5868497042883
93.5872858346636
93.5544658322013
93.5495763668297
93.5760287009042
93.5857602566294
93.5994170095502
93.5952879649915
93.5777017088063
93.5747990497304
93.58487384529
93.5676432283868
93.5745553933994
93.5471533285554
93.5548134952796
93.6045767505258
93.5488365010358
93.4470422261007
93.4876819898708
93.5801819879633
93.5877021613312
93.6086096610084
93.5854856473131
93.5455777369259
93.5113494096997
93.5446246227535
93.6041892836199
93.5985859027755
93.5630964531225
93.6457629428582
93.6899184873522
93.5434066931647
93.483216968559
93.5157990022575
93.5546386876079
93.5751978818446
93.5747913292923
93.5653868434216
93.5243259028373
93.5016537721472
93.5248951777023
93.5308196259093
93.5364939180157
93.5399661727747
93.573403366951
93.5679469743714
93.5594620371796
93.5932037894892
93.6263767156051
93.5645980832388
93.5359364237305
93.5480844869505
93.5702979737387
93.5979486429781
93.6338611353404
93.6158302278391
93.5376563375194
93.5332248983855
93.5501031442593
93.5551392886919
93.5667263891315
93.57661017932
93.5850844433993
93.5818480755181
93.5445354869725
93.5469110673952
93.5999163721872
93.633151021226
93.6037553057027
93.5717613316534
93.5986054121605
93.5985801999992
93.5892050900847
93.5583174378917
93.5761120239819
93.648567497996
93.5992803706687
93.5258273851497
93.542313754412
93.5478773141523
93.5130256971461
93.5241630246054
93.579111632799
93.6292800913886
93.5859473458223
93.5444195034503
93.5680851373897
93.6061891343289
93.596020688043
93.5472104078334
93.5853824048161
93.6493604665414
93.6233243293827
93.5955564666409
93.5721658602176
93.5765470627981
93.5963177535957
93.5948063998493
93.5317549477261
93.526863183268
93.5792062883724
93.5939837542189
93.5684751044612
93.5689505861602
93.5704222530287
93.5660432923892
93.5482100198259
93.5359144462589
93.5262831475975
93.538154929014
93.5685850634969
93.5997767683504
93.6280855167752
93.6188955358958
93.5926392182585
93.587463405004
93.5893951412642
93.6480903718286
93.6741321669963
93.6121566357315
93.5809021025426
93.6075445178106
93.6497998026477
93.6394103435128
93.5963525122739
93.6260956351566
93.618698123765
93.5660573540004
93.5768951727317
93.57082062144
93.564754636125
93.5875047532785
93.6223239917173
93.6375010012039
93.6369959743079
93.6454732517215
93.6091492952665
93.5619729058138
93.5921675755757
93.5871708281131
93.6186233560001
93.628433074082
93.5983185862341
93.6356434037901
93.60832212027
93.5894028485838
93.6119233072435
93.5847950557164
93.6001912179573
93.5738681501167
93.5428616717079
93.5408957300838
93.5587833954451
93.5757917155172
93.5602182766971
93.5527977687657
93.5835909927159
93.6051671759292
93.568949908461
93.5719330872546
93.6097315018736
93.653250342934
93.6274837826321
93.6123677459963
93.6428545448377
93.6234054420611
93.5933911275243
93.5905544868003
93.6086171559142
93.6188125345093
93.5977599985009
93.5741630069677
93.5897822037101
93.5716928211411
93.573382555343
93.5817388940772
93.6050401335007
93.6261771317434
93.6051373917801
93.5790872661401
93.5676734343003
93.5835800930029
93.6241110996667
93.6094365179493
93.5834221683347
93.6049479796332
93.6108716853999
93.5546430684627
93.5328473049106
93.5610820772711
93.5587479348288
93.574843717593
93.6163220749279
93.5966020467812
93.5721477585276
93.5654647125128
93.5318236656682
93.5079575351361
93.5306330161444
93.5540627474611
93.5668689665318
93.59370696873
93.6209484868332
93.594921421994
93.5886875916971
93.5906996704487
93.6046679745257
93.6020317742105
93.572304038818
93.6163363458758
93.6302560339876
93.562595612234
93.5346307816741
93.5400396403195
93.5762891648152
93.5935705433302
93.5705749135245
93.5866844560372
93.5877216937675
93.5818441718895
93.5268506535953
93.4809705213459
93.4951692268038
93.5017799678611
93.4915098639206
93.4897509805694
93.5332989522451
93.5392343141485
93.5340624105475
93.5262402927711
93.5297451657171
93.510845663288
93.4964835375081
93.536042571304
93.606243199581
93.6178987528217
93.5400308972722
93.5393145146175
93.5515377747703
93.5703259328807
93.5506438871692
93.4960933252885
93.476345811995
93.494572031555
93.4669933113375
93.440458844686
93.4785421924223
93.5300510315537
93.5302933660755
93.5134969265301
93.5021923101918
93.4928248865139
93.4660315827358
93.4867199728113
93.4909243976004
93.4393906146425
93.4137778000955
93.4540209946048
93.5158396362048
93.5721386148417
93.6008870686081
93.5783158350656
93.513273119955
93.4637665509293
93.4883106552426
93.5363154487943
93.5998289749534
93.6148075595118
93.5890133734072
93.6007346226603
93.5791916231319
93.5402012253164
93.5406029427025
93.5538476768365
93.5723576422877
93.5899725341222
93.5716771715721
93.5166660411603
93.4917376928407
93.51083543095
93.5156458955086
93.5012787222979
93.5116340769459
93.5010036021081
93.5099400864768
93.5072013226079
93.4943820127638
93.4849301376249
93.4842701605011
93.4860076724771
93.4938869942415
93.4837216340749
93.4798278244516
93.5396376459077
93.5588146360149
93.5248508091681
93.4869343566605
93.4972087268714
93.4922541008705
93.4742126311476
93.4684872715659
93.45267510059
93.4582717582201
93.5015683251237
93.509363717038
93.4929078459802
93.5248196042103
93.5120402632187
93.4750673421769
93.4644698949288
93.4524661236082
93.4521487210848
93.4557743413498
93.4613756284536
93.4559898477231
93.4504448455948
93.4638855745456
93.4458985101769
93.4351478878794
93.4613533810547
93.4708454303066
93.4582302947046
93.4359555810101
93.4393541201644
93.4546259836348
93.4450904564225
93.3772044574204
93.394362810152
93.4343198839395
93.4221841361018
93.4079022464202
93.4331310525799
93.4310518435578
93.4117890607687
93.4111605918773
93.4526965712804
93.4720639745602
93.4810180157284
93.4872717527159
93.4712109649978
93.4591355246139
93.4344173501754
93.4445654865458
93.4548633148601
93.4292537664084
93.4237880234264
93.4672017810727
93.4705046579445
93.4437394872804
93.4464774349104
93.4798292983705
93.4715168322809
93.4687010494102
93.4958163283092
93.4781047681079
93.4500111432865
93.4407126894501
93.4357499542476
93.4124247579151
93.4274119837017
93.4466898840771
93.4160137340018
93.4216706385414
93.4037804056098
93.3914030692325
93.4116562553466
93.4232632683902
93.4194112401849
93.4212735371657
93.4335795181415
93.3970953296621
93.3851174664128
93.4239080902255
93.4478863793546
93.4374906330784
93.4458197723852
93.4448582793747
93.4404653588399
93.4713961236002
93.4608472301187
93.4327494156833
93.4112852373827
93.4131487102504
93.3877344214932
93.3947258510174
93.4098655412884
93.4053026257612
93.41208232724
93.3957364238313
93.4017632110373
93.4179864674336
93.4058144537555
93.398228593513
93.4410250133324
93.4420426387766
93.407549592192
93.3973138735493
93.3998958398787
93.4305683330367
93.4456432940741
93.4140720200339
93.4132772164875
93.4382095091971
93.3976793391892
93.3820409302861
93.3948069631789
93.384785221581
93.3826019823458
93.3811108493199
93.3564848503918
93.3769809613173
93.4278649723022
93.4581208856585
93.4588966842749
93.4564675690649
93.4444262889782
93.4552983802295
93.4510816826576
93.4335721584498
93.4437908217929
93.4311877976887
93.4111500663892
93.4005002599396
93.3967349848805
93.3864179892219
93.3699823634131
93.3716573646546
93.3976579641878
93.4060249418066
93.3990166981997
93.4050970838867
93.4453289243975
93.4593054931804
93.4141834044677
93.3896360944405
93.3786232844586
93.3629581082441
93.3881315415566
93.4109870484452
93.409551930012
93.4149179533624
93.4030844566936
93.3881514109323
93.4078300338244
93.4418406691889
93.4398325653126
93.3983192748867
93.3581962526323
93.3795378213385
93.4347817777929
93.4407894083834
93.3734598532172
93.3812210917718
93.4412970428278
93.4589302626583
93.4374870653469
93.4048826492258
93.3986190595929
93.4209683645817
93.4408822694653
93.4284873230262
93.3975017606108
93.3789617355288
93.3888684192595
93.4032189423742
93.4087084787151
93.4223894400335
93.4268413681507
93.4108542615318
93.4043931072839
93.4196006163994
93.4161306008146
93.4011342365605
93.3886244002108
93.366538578598
93.3693796237284
93.3998337410148
93.4005829041358
93.4001407122412
93.395482361508
93.36663444004
93.3630795438298
93.3948382823981
93.4082534864356
93.423791255306
93.4018971061146
93.3782426265009
93.3859379336381
93.4020724664677
93.4003819574743
93.3714076465698
93.3768922229238
93.4178557556546
93.430098856223
93.4022829863594
93.3874190375166
93.4095299253696
93.4145793346831
93.4137464602183
93.4225038993317
93.4127537240398
93.3912616840428
93.3914286772531
93.3981347977664
93.4144297398373
93.4092398287279
93.3720766006277
93.3737280574037
93.4000751838403
93.4044217230548
93.3767676575161
93.3580630868735
93.3828141694882
93.3954272306011
93.3758529067529
93.3636561713525
93.3654201089335
93.3798072128969
93.4013552894069
93.4143562169938
93.389566916222
93.3815041716743
93.3975666392749
93.4140570325639
93.4391395612682
93.4141299806387
93.3650007643288
93.3709030993743
93.3925332864359
93.3716912530617
93.3429042376339
93.3248291468521
93.312603313994
93.3026684593849
93.3023651511424
93.2972696509523
93.2793430733032
93.2870861249319
93.3060384366935
93.295557408629
93.2694389304028
93.234280413573
93.2151017000965
93.2076697913455
93.2171626521095
93.2299102929939
93.2377756521988
93.2481319565248
93.2686890665365
93.2733219469054
93.2640187147864
93.2567333980884
93.2721907276943
93.2676712314638
93.2423275717871
93.2159966135333
93.2096262663408
93.2542135813976
93.3226064604329
93.3080422621865
93.2993719540134
93.3299100739883
93.30983450072
93.2674056298002
93.2973850256872
93.3633864518586
93.3470018943126
93.3048529056681
93.3105649142462
93.3337715077955
93.3279522139713
93.316318538098
93.333220890389
93.3500125758748
93.3143905666829
93.3007719722169
93.3532458896831
93.351082136531
93.3363335614603
93.3743656130036
93.3719926223318
93.3292871905175
93.3363238369493
93.401448487154
93.4345284205686
93.3937108409827
93.3538992554189
93.3248829573321
93.3379638842569
93.4052470904125
93.4279902525557
93.4227290361933
93.4018368957741
93.4142946746341
93.4527879544588
93.4554958324127
93.4494578799606
93.4674263559894
93.4879735753456
93.4914839136163
93.4841092523062
93.4916344502156
93.473430931896
93.4538704407841
93.4786306594814
93.4465789873408
93.4609174413594
93.5032389514397
93.472295534228
93.4826335429846
93.5284590216736
93.5424621815209
93.5829268683919
93.5885396287214
93.5107347982225
93.4811299741245
93.523065651219
93.5260075484643
93.5557166438292
93.6026863759518
93.5769529925863
93.5508811115601
93.5649129084812
93.581002632963
93.6222579753276
93.6292665964399
93.5647380234873
93.5313309322952
93.562728175178
93.5824582674398
93.5849244746736
93.6071242674474
93.6062697365658
93.5880630468983
93.5670558632288
93.5414249773457
93.573715858675
93.6394629748365
93.6327420805019
93.5925855475496
93.5860259534474
93.6006831920048
93.6204063655772
93.6073284227628
93.5953036146242
93.5750656759193
93.6174055470444
93.6631685494409
93.5944573741199
93.5961900533471
93.6754729770433
93.6598020045601
93.6103608090567
93.6091031458573
93.6381619762987
93.6574099598999
93.6811273053923
93.7042164094073
93.6724536550113
93.642051390006
93.6471198366763
93.6659223112016
93.6966913095176
93.6592067849972
93.5941039036261
93.6218304860974
93.6982594224335
93.6957663281548
93.6069669798891
93.5990472193551
93.6485441664512
93.6397013016488
93.625855230449
93.6422138627745
93.5969155735282
93.5661164407617
93.645125846068
93.6858423616931
93.6505196720812
93.6566937617718
93.6802324050465
93.6717380506343
93.6599808111917
93.6404219597838
93.6191733351113
93.6271072832248
93.6261288242929
93.5719312218121
93.5637674820117
93.5952673255434
93.633978654104
93.6744157186455
93.6493782001573
93.5809464002145
93.5652046948292
93.6179646365583
93.6593223999248
93.6693796449755
93.6606317847413
93.6511945630857
93.6429332200838
93.613132319014
93.6084318049971
93.6098071431419
93.5705458437003
93.5629043576088
93.6101410657007
93.6244107010632
93.6569697319251
93.673727548927
93.622007870726
93.5745411496502
93.5692090925798
93.6129690015238
93.6296864609089
93.6261848591292
93.6256015300169
93.6365500960403
93.6369488327419
93.5874414774089
93.5729024039172
93.5937222865288
93.5939908451258
93.5703654127651
93.5492232781606
93.5679390115368
93.5825659275091
93.524949713309
93.549537897548
93.6438890197556
93.6112736022334
93.5727717821877
93.5905557148998
93.5939652712221
93.6154072848584
93.627195894943
93.6107280648822
93.6106321179246
93.644599593765
93.6752907254883
93.6745647398763
93.6461120962143
93.6014239468033
93.5695597873932
93.5652451052972
93.5434697116027
93.5045284426151
93.4868560482804
93.5174652660711
93.556938500832
93.5737439926153
93.5956975069471
93.6042345708944
93.5995410936934
93.5950468260676
93.5473700108179
93.5255978984429
93.5592769207069
93.5399590405264
93.4905356767732
93.4905268468763
93.4490348507438
93.4404331492512
93.5323341729541
93.5678525784285
93.5423589303561
93.5562176766191
93.5918632820501
93.6007566836301
93.5547859141139
93.5588553820494
93.5954200808132
93.5776327441218
93.5506641295992
93.5127352078358
93.5088797105372
93.5627634568731
93.5780439695431
93.5724427470522
93.59016996631
93.615046493636
93.5759749934394
93.5200951030209
93.5375892485026
93.5742951994058
93.5793701350191
93.5532423113701
93.5577049389032
93.6137380405629
93.626754803246
93.5812884284731
93.558291062442
93.5432844466455
93.5242108000838
93.5135329058621
93.5281466218835
93.5774310968247
93.6187866861104
93.6168878625441
93.5861496438098
93.5393292681647
93.5088520670053
93.5810976782481
93.619263454147
93.552381946044
93.5161567847161
93.5391619133882
93.5738620606204
93.6246337945364
93.6168069529244
93.5767451460563
93.5400557269584
93.5130860304171
93.5011581430147
93.5089084622094
93.5208988499142
93.5427602314509
93.5838128305604
93.5681708878469
93.5212397709691
93.4867815454744
93.4554175802826
93.4837302682365
93.5150897101217
93.5281915651738
93.5420223563454
93.5366735779298
93.5236621324341
93.502696072038
93.489318051449
93.4770076113846
93.4419073539269
93.4016270246163
93.3801974621905
93.3915842488499
93.3493589877932
93.2784782112305
93.2722941085619
93.3584117696531
93.3359912060301
93.2344736171347
93.225594813805
93.2437472131161
93.2138462840827
93.1990241194987
93.1948465460913
93.239075068344
93.2911689047464
93.2743549835282
93.2450951355615
93.2953356520773
93.3283183821642
93.3061828750444
93.3168260162545
93.3715299979151
93.3977672208038
93.3807517309288
93.429595446165
93.4594069912129
93.4141199541041
93.437370832459
93.5038420687471
93.5771213958222
93.5866602910937
93.6264937924911
93.6922314423099
93.6948752662897
93.6484517973187
93.6011566092718
93.4628987576769
93.2929934926871
93.2320726704875
93.206627584417
93.1587778597854
93.1224378607551
93.0893385969155
93.0911552092284
93.1506399040766
93.1996266195159
93.2234946475488
93.2885837498965
93.3144346356849
93.3155153602935
93.336241528836
93.3609440507424
93.3405681711551
93.2854048136046
93.2673662072971
93.2941612914601
93.3313615505684
93.3260169773965
93.3397985979686
93.2727858558392
93.1476398617898
93.0834293441862
93.0975369751052
93.0123788505072
93.0157491591267
93.0523503524712
93.0879198575226
93.0487907049813
93.1304046018596
93.2009622673576
93.2464122829483
93.2217438416705
93.1930358507785
93.1889640760366
93.2712990122563
93.3027112211464
93.2609568612593
93.2442091540928
93.2911527124487
93.3572494186547
93.3403710340534
93.3273360519421
93.3194106825557
93.3175700088019
93.3685013357883
93.3537610852474
93.2840444097618
93.2716563818414
93.3144267870252
93.3056733719366
93.3055679637315
93.3238998698309
93.3901752522577
93.4174466747515
93.3936246932701
93.3741653515661
93.3425438445348
93.2896249003771
93.2810386059123
93.2895299471848
93.2879831292956
93.319455019095
93.376782832406
93.3702555531155
93.3452105988222
93.3115262327576
93.3349873076097
93.3955168342189
93.4286408036782
93.4279735724943
93.386746800081
93.4384049678428
93.543384626394
93.52467194594
93.5192320613433
93.5792272702189
93.6487919084945
93.6862844225455
93.6950678994993
93.6856772952252
93.7708525361656
93.8109632631402
93.7728756770825
93.680077249441
93.7085762778752
93.7328171569721
93.7967764500531
93.8731393265964
93.8655957687053
93.7731335092685
93.7749404035306
93.8534567691032
93.950420723045
93.9658355746035
93.949095995365
93.9914110673068
94.0388275905868
94.1187361049588
94.08138860869
94.0385930041116
94.0488917669067
94.0222401603918
94.0471669278022
93.9762551890381
93.9897007877462
94.0681852622855
94.2116154489516
94.2489905850341
94.1754470207435
94.1330225390887
94.137031731282
94.1821602280838
94.1511930687231
94.1032375458787
94.1857496584535
94.2188834214276
94.2285293725426
94.3019144699969
94.3640983439761
94.3203146483472
94.27726174648
94.3444857138744
94.3513096018359
94.2514547618928
94.2982771738101
94.4198245760444
94.3725732071176
94.3163087272409
94.312939476631
94.2419166483399
94.2527939090114
94.2958122831737
94.3858705753391
94.4156603929974
94.4400699658107
94.4821634328213
94.3704707164645
94.3099720306811
94.4183016295438
94.5614931609927
94.678250225469
94.5905900723436
94.5153645918482
94.4702539068548
94.5579401899386
94.6133827785935
94.6333444391121
94.7140846942712
94.7770933775962
94.6054812185264
94.6114294423234
94.7584888272107
94.6312703136197
94.5733431126042
94.6977926416791
94.785921282489
94.8952018722877
94.9270569328585
94.6817310067851
94.5510923084188
94.7263854216606
94.6885510952841
94.6236600196763
94.648940379532
94.8168923619726
94.8415628575399
94.8596398921865
94.8723751371378
94.8428752945866
94.8690179084529
94.9103584989113
94.9999140721526
94.9924687400887
94.9830678695584
95.0581103337572
95.0947752969912
95.2936123228158
95.3975081029553
95.2426909601893
95.0587712643024
95.048102180188
95.1342300719394
95.2174565509789
95.2662865742441
95.380795560647
95.2561062821223
94.9956742445567
94.97944534046
95.39122256125
95.6233766386566
95.3622372984849
95.1953751395375
95.246226379186
95.2912539371146
95.2643584645531
95.2237868474014
95.3096870575179
95.12734590543
95.3518131646413
95.8147313196369
95.8830573718293
95.7548188325051
95.7431839410413
95.9374795421892
96.0626978004039
95.8432030295135
95.7940487642275
95.6718568857837
95.656729679331
95.6717546626307
95.4716255766104
95.2729776003205
95.1689334118913
95.1371504054879
95.2700254902273
95.243940862955
95.1605722064249
95.055683369389
94.9472397003231
94.9550603967347
94.9344330359119
94.914942188549
94.917816816654
94.9416478358426
94.8863702435811
94.7787726148132
94.7946674481666
94.8021029447355
94.841306836134
94.7537843535183
94.583975881298
94.5092313403708
94.4340020477671
94.4334374034591
94.4551463711148
94.5368712511514
94.5428672029808
94.4094896070173
94.2330065165741
94.1034503032829
94.1834029214424
94.1806147142802
94.1038442263693
94.0652265976244
94.0436024121938
94.1389198243427
94.1285653328363
93.9548128617372
93.9680474878042
94.0265275977079
93.9378068557583
93.9347707660321
94.0368888973666
94.0043761113077
93.9638194040421
94.0366858414089
94.0717369136016
94.0997131141385
94.0029759605839
93.901936200969
93.8788708082787
93.8481616148141
93.8270742235226
93.8638505020188
93.9785876756756
93.993936370496
93.9889423078106
94.0417536689409
94.132796363681
94.1370923015486
94.1247874134722
94.1301180001822
94.1255764807833
94.1014097707026
94.0865853749016
94.0265587487883
93.9487854089024
94.0057337658555
94.0106472267673
93.9544408856743
94.0318644668244
94.0458140120501
94.0197897692967
94.0241967803714
94.0025088293765
93.9899226864266
93.9824729431194
93.9380611679955
93.8665273140348
93.8734379583902
93.9813237169539
94.1591030672772
94.1358034111571
94.142192359446
94.1809683753036
94.1464151701461
94.1299914935285
94.0889650938793
94.1187915611163
94.1471417595344
94.1038892550101
94.0560290580525
94.1590823498
94.2680999956265
94.27959318942
94.2386312322233
94.25062280658
94.2411476512405
94.2769348030591
94.2610295997508
94.1749689970566
94.2937423078777
94.5448117594685
94.5180746136317
94.2876016020584
94.2309979554041
94.3678982651439
94.5099246969325
94.5534294410269
94.5921276535718
94.7599653934498
94.8098835471097
94.6989005054392
94.6380589924952
94.7092512634549
94.767326352623
94.7489817428859
94.9338186567148
95.0524266155503
95.0541950335507
95.1772488739307
95.2823500284541
95.1408172084171
95.1646896595924
95.1412530491664
95.1095964146851
95.2051727655908
95.1968254300159
95.3280294434232
95.3920828421109
95.3405769999998
95.2043828974028
95.2166125962261
95.3687600604998
95.5170668949487
95.4948790739079
95.499062919613
95.4495568795843
95.249145622174
95.168401491085
95.175248650094
94.9510483322665
95.1820287453195
95.4504034480335
95.605019954169
95.5880543707333
95.3565828504661
95.3164813816768
95.2875087741373
95.0627695652472
95.0913799291137
95.1580813023448
95.2109484605746
95.1354436152286
95.2160939790782
95.3345685285448
95.2155281761084
95.256790860485
95.315547246143
95.2172571568358
95.1594900998005
95.1345365578103
94.9517759474622
94.8643044181773
95.0157538325953
94.978371338075
94.8433794282508
94.7975879027985
94.9209210289015
94.8947414857396
94.7053751151727
94.7179924755879
94.711605523843
94.9633328300057
95.1400336751546
95.0911480713848
95.0357974220213
95.0017531376554
94.9804136666352
94.9611874063945
94.8791406966265
94.9804003032174
95.1424617828473
95.1604071378559
95.0559641829929
95.1661563927228
95.4744554487988
95.2510863917142
94.8827623103981
95.1471317235818
95.4783153174555
95.4557215648818
95.4478699273797
95.236108481596
94.9662997289338
94.9235760493892
95.0975128514926
95.1819163409031
95.0744762047182
95.0796079924897
95.0251095349416
94.8392661367422
94.7011834758707
94.7273277506364
94.8314286657029
95.0266663919744
94.9816133966185
94.8389085028338
94.7426799022652
94.744349923948
94.7695856325395
94.602939149869
94.4879938090547
94.5547108118033
94.6746351220801
94.6172744030258
94.4284331703326
94.472535389325
94.4953268913432
94.3155523687569
94.2123533305102
94.3392214329954
94.3830632221201
94.3212234778292
94.3274210096084
94.3223722060402
94.2462041676152
94.1786967280984
94.1048056479557
94.1483332558161
94.1032029294143
94.0192517879488
93.9986230050433
94.0793207425794
94.1601465586857
94.1178562181137
94.0772621487977
94.1173653576763
94.1878781510606
94.1052909460389
93.9580561322695
93.7477272046174
93.718930028211
93.9167497929135
93.949179173679
93.8488816351607
93.6135312897504
93.4616423842781
93.6764299880566
93.8933636058902
93.9652829779716
93.8944022140438
93.8814728819065
93.8512457625292
93.8041490305637
93.6756405056648
93.6525824581014
93.6612032584539
93.654097661659
93.6512309671509
93.6546135808417
93.7433612329759
93.7555472245389
93.6798070074481
93.6492716091942
93.6266482933801
93.6326611415726
93.6530271932226
93.650580453189
93.6436893991938
93.5766420677211
93.4389230369987
93.4270198432718
93.4955107138559
93.5898675702968
93.604324472673
93.5354936237598
93.3852529278235
93.3051460120323
93.3126672191335
93.4726183775716
93.6692226515404
93.6363376948931
93.5122916090345
93.5178705586697
93.5827563459822
93.6067824735829
93.544527794172
93.4475076406075
93.4435298434083
93.4046687145361
93.406234917547
93.4154405424911
93.408255426093
93.4302420329352
93.4365600214518
93.3984407082301
93.2887021841107
93.0224029597656
92.7629747845599
92.781348156175
92.9637235400518
93.2527903337267
93.4980158581679
93.5718953950193
93.5481750638729
93.563915502321
93.5583404661047
93.4596703599372
93.4175855367923
93.3889498632047
93.3095571360878
93.2828219869237
93.2649471381586
93.2384430315227
93.1961891598648
93.2080468545104
93.2326589974475
93.2283887467428
93.2569808149249
93.2869599912702
93.1983867819615
93.0993435196134
93.1540828559667
93.1435733439125
92.8374957606697
92.4366605529003
92.7418238725397
93.1492302328484
93.4158094563312
93.5211424541221
93.5050135634988
93.5039903199256
93.3462538231879
93.2027694236102
93.2494883985788
93.2102464220212
93.1517710172351
93.17436750265
93.148569951889
92.9589877486359
92.5498657832958
92.4961161446352
92.9344871861148
93.1662705618934
93.1130942201358
92.8195649355862
92.9204100036619
93.2638611775712
93.288807115594
93.3024253374179
93.3007601635529
93.2443973204299
93.2089172542308
93.1371716126225
93.0951835850497
93.1538436516931
93.1357278691498
93.1250172571939
93.1265752849886
93.0814278448779
92.9129853375513
92.7458960822697
92.9089815870931
93.0329665917316
92.9909908795492
93.0387233646721
93.0750039181654
93.0914156531289
93.0804194797411
92.9058492242468
92.6428006447541
92.5860187000297
92.581481816623
92.5447390097285
92.8133696260233
93.0051346102418
92.9185878515097
92.8696110400887
92.9598531142767
92.8256518353138
92.325276261668
92.1318073960321
92.3633048133444
92.7563005364726
93.1340382677226
93.2557113407462
93.3191524954783
93.2443407055552
92.9566045053351
92.7229534400543
92.8454207384484
92.8885128417385
92.8138530354376
92.5796970676636
92.5656781229602
92.7341219777227
92.8912537165303
92.955346398403
92.8005966446197
92.6514696819871
92.7018057489529
92.350698420601
91.7389139758866
91.7443065765009
92.4223756221926
92.9711272329392
92.8560148978011
92.7092683385287
93.1040036933228
93.3009413953973
93.2683169211134
93.1452263479267
92.9405762466566
92.4632340603985
92.2913226839298
92.7091759272854
92.8821049446776
92.8487926617829
92.6189477959867
92.3888289519887
92.6855124955593
92.9129973396765
92.9768250315719
92.8600316261125
92.4201020721412
91.9552612671281
92.1965195085254
92.1777071224721
92.155382984108
92.4511546540429
92.7909546911011
93.042734132466
92.9801407329447
92.7021774934172
92.7240748043032
92.9605928765356
92.7525286644781
92.2515733930783
92.3875479592091
92.8251789197367
92.9464290283337
92.876664020788
92.2998370610766
91.2579498470622
91.05582053188
92.2169270209386
92.8804451690703
92.8411127745444
92.7974013342764
93.1265572727061
93.2365193444604
93.1767280374937
93.0319204899082
92.8714392278258
92.6434104995274
92.4602301350272
92.5144900793616
92.5966521139192
92.5678568754997
92.1714628759709
91.3283376944617
90.7663256742185
91.3415030452977
91.8317349053328
91.9269832218855
92.5248467186463
93.0843000817004
93.282625637017
93.1183906730697
92.8484561470334
92.7936754041598
92.6974922483172
92.3223349028227
91.840574020688
91.7519739142378
91.8071887030204
92.1338902119561
92.4643065905621
92.1318653375819
91.0165495705759
90.1626118070995
91.7716759168407
92.5372241974391
92.3899656111092
91.7028676668203
91.8979206423205
92.9867664758138
93.2642295734437
93.1805401350125
93.0160214490287
92.7410601092552
92.4499937095145
92.2323616428837
92.1690419820918
92.2162454356561
91.8610385172257
90.8010627404622
89.689203107748
90.709054471642
92.3528626064479
92.7514921550321
92.6239985561586
92.808411814096
93.0125222638171
92.9103536291654
92.4918714611631
91.6408293091164
91.3839722055105
92.1346817385321
92.3480480928267
92.1606060911197
91.9897619603162
91.821356910416
91.3749982100908
91.7846891804961
92.4693102320289
92.7542684843125
92.8024667319522
92.6578411673027
92.1712176165332
91.6156937512199
91.8291140362342
92.1893485616407
92.3352512291638
92.3804000085532
92.3508246436187
92.264980560954
92.09051153562
91.5974928884211
90.4655620481759
88.860930059799
88.5649527222238
91.3394278651585
92.7367945246322
92.9499145591675
92.6068376337681
91.9463698424736
91.4489396753214
91.3008882699144
92.0467659167933
92.6169737868515
92.7257520782931
92.712325163831
92.6132044013338
92.5033769331181
92.3243100617064
91.9662469781934
91.4953698710267
91.0599673564655
90.2167467816786
90.5294921259391
92.0876504553226
92.662843459734
92.7730613334831
92.7461858245597
92.6291503479233
92.3382449109036
91.8532486200288
91.6606518955217
91.9730054626022
92.0727946669168
91.797828673457
91.2910833424431
91.5041516382001
92.1220473821364
92.3172049420757
92.3509552907183
92.3171289552439
91.994338238254
91.2178084510109
91.037555998106
91.9153381949608
92.352345954094
92.5034256298822
92.5523538393691
92.5001751871116
92.3316207552
92.0998915247279
92.0123232487051
92.0027199848857
91.9651598499896
92.0384405276349
92.077228970616
92.0439415780194
91.9999098672563
91.9991709029803
91.9846275439585
91.997507514089
92.0443938882954
92.0763868280921
92.0730124036941
92.0182093641175
91.9452677316231
91.8923831340091
91.9417165918303
92.0293192049765
92.0449229861191
92.0325344955136
92.0203899501436
92.0415211102655
92.0662669288466
92.0648035987882
92.0538998008614
92.0477042457854
92.0442787253822
92.0185351385133
91.9939396274927
91.9942732335287
91.9914255208205
91.9651209250433
91.9414677485123
91.7201119041265
91.0286941756759
90.2548580379451
91.0446919325344
92.076244103451
92.4371238087501
92.569164152353
92.448983071985
91.9107687416457
91.1313266658392
91.3646872566897
92.113372011639
92.3644946944196
92.2234928549439
91.9631761039474
92.0678196395605
92.2715403443133
92.1355924864868
91.5862670314198
90.368910409996
88.7783802435437
87.8345997994824
89.6985532137071
92.3301258876593
92.8178876581742
92.4954711640325
92.5390308747461
92.8947727678775
92.7343124482384
92.2531374325815
91.7490763548574
91.9041373046294
92.2998067847843
92.3029595651898
91.9558371432127
91.3259476925442
91.1000895542846
91.1765805815557
90.7950538383157
90.4758173118395
90.4188832993126
89.75297522796
90.2163105201558
92.4495991794107
93.2136914443648
93.1392926346418
92.7048157889802
91.9412484708492
91.3523079577512
91.7013575715745
92.1399003444983
92.4326970169428
92.4221496697375
92.0408150595915
91.7499459905662
91.6460572599801
91.3720565005978
91.3500534581564
91.7920969314078
91.6289367895761
90.9244557446169
90.3680946257985
91.0967554810974
92.3459431544911
92.4538526274158
91.8721212178124
91.6871601784915
92.1482141849495
92.4757861610231
92.5783185102203
92.285533896339
92.0374569047494
92.0846471419395
91.7871789836069
91.198917175089
90.4803519900094
89.4737313106373
89.0043850220266
90.9446083321299
92.8758222604006
93.3184928312442
93.1472832809518
92.9012661658341
92.6576896758763
92.1644883122211
91.6004039521111
91.5360774242506
91.4120902383707
91.193649886931
91.9415428787507
92.5041971260297
92.5941546115369
92.4233308172609
91.8962327135661
91.0944542003262
90.9118208703976
91.4227396053506
91.6869403051111
91.9777545305432
92.5017268237932
92.6993399046093
92.6480133079168
92.4820817836111
92.2226457974803
91.9981549382371
92.0401653489696
92.1350856646567
92.1296350826662
91.8734787145512
91.4217420663628
91.4470034365191
91.6334587241211
91.1960969735325
90.6438100662673
90.99511147163
92.1458284267235
92.7544583922056
92.8142000590226
92.7024626307257
92.5187850096295
92.135807913902
91.4679593743725
91.2620999541866
91.8832532800829
92.2461989297222
92.3296264569457
92.2629893387178
91.8801668948593
91.1663473340885
90.3082426821439
89.6737877334168
90.4402281634006
91.9512020219248
92.7502647273448
92.894583726763
92.6845907100183
92.5124153892529
92.4381967507473
92.1926838606738
91.7316332703188
91.4970694528697
91.8469987121427
92.1341370221303
92.1946010121891
92.1900641471491
92.1415609097562
92.0857604742881
92.0037202268462
91.9312323924532
91.9067652599055
91.7055335497729
91.020208517128
90.4174551596149
91.2534532783818
92.0516233404905
92.2345571523284
92.2745533305425
92.2270192791825
91.933254701448
91.5738309704757
91.633560487181
91.8847477206384
91.9860741540355
92.0192493639002
91.8584105186363
91.4557163083339
91.333870643056
91.6815649752773
91.873751096307
91.5533632757271
90.7916484905038
90.5153892512148
91.1754096927493
91.6393184534718
91.984900472092
92.2211707802109
92.2332525544671
92.0559702198799
91.8154597158994
91.6544853604944
91.5957017292765
91.5937810635626
91.6047196941391
91.623715054082
91.5751891193904
91.3008947935904
91.0796251146747
91.3237203302146
91.5977951541712
91.6841955641947
91.6704516236904
91.3741851052434
90.9244397161316
90.9233064742623
91.276843876909
91.3736977735064
91.1552146208803
91.0449000023903
91.5034956309291
91.9308799727125
92.0326382407411
91.9821366135252
91.9309698986538
91.7570697763831
91.320546260125
91.0454351729059
91.4199459068607
91.8118439151124
91.9525998828389
91.9838546111537
91.967860049282
91.9135335648467
91.8218242010732
91.7371130729902
91.6860965132663
91.7055125676317
91.7804387322891
91.7339835391252
91.5020442742133
91.3525424807962
91.5945561504185
91.9767424908796
92.1766391385305
92.1778205182405
92.0210766044123
91.8762763813352
91.9319794496898
92.0279688270996
92.0602012070176
92.0060492546528
91.6806396400325
91.3921808918976
91.5271078764342
91.7762891749162
92.070232223349
92.2720233986952
92.2521504276045
92.1945989518615
92.1115965018947
91.9978791491985
91.9332506362521
91.966864243611
92.0308121054083
92.0575656098591
92.0405548780092
91.9875243261437
91.9789144062325
92.026292508321
92.0475926525232
92.0445833419431
92.0458544960498
92.0378230174715
92.0223297453984
92.0282963743664
91.9117676882479
91.6227415073903
91.4319823640807
91.5894888710534
91.8683987509085
92.0364957207731
92.2011157281325
92.3078649066801
92.2655726958259
92.1826457116466
92.1270420931743
92.0818626439025
92.0498085609645
92.0411558048579
92.0548095500619
92.0588010077215
92.058096352247
92.0549968593392
92.049844206896
92.0280418059613
92.0382381243249
92.0475239978023
92.0224867779379
91.9651554602998
91.9239811542153
91.9455306586969
91.994762491847
92.0528709841113
92.0962680853686
92.0722868914706
92.0195701983191
92.0094486922253
92.0573158865356
92.1252645985325
92.1486190413904
92.1196872023197
92.092584942328
92.1008356774458
92.1136919639614
92.1045741870153
92.10297668473
92.1095128929812
92.1156455477542
92.1213358746109
92.120820304108
92.1155732508744
92.1173280685157
92.1050250278104
92.0937232926935
92.098882668426
92.12103353981
92.1302112172866
92.1314061166706
92.1293389730055
92.1188458982202
92.1196521006461
92.1011596261034
92.0627881473339
92.0663204487545
92.1003460540458
92.1290933287997
92.1412853948797
92.1467881541745
92.1508430811588
92.1446718082735
92.1279191108647
92.1148372405901
92.1287724567137
92.1414059799554
92.1355012983357
92.1184903065127
92.1138310834667
92.1396717488614
92.1589205460783
92.1255237938683
92.1107738188607
92.1186360449938
92.1168907791349
92.1274121301741
92.1520538918228
92.1486690771207
92.1473273493177
92.1485301868615
92.1302678790343
92.1224327637633
92.1284851263639
92.1235420673658
92.0991426454279
92.1146408708309
92.1472679714574
92.1640712921414
92.1791439860219
92.1908275111669
92.1788751993296
92.1621689430938
92.1735056518545
92.1887785850952
92.1988965258649
92.2039630082239
92.1885179194999
92.1959616444249
92.2079625945216
92.2052811109031
92.2046541538715
92.1912847876434
92.1896910772012
92.2136088491437
92.232257837071
92.2285594870015
92.2289296189442
92.2358031023263
92.2268125221057
92.2282733778452
92.2403082949066
92.2542127630638
92.2639707498148
92.2610623987485
92.2540949675754
92.2515630277174
92.2504613502919
92.2611964603427
92.2714639262135
92.2676630143562
92.2681830805137
92.2507111125128
92.2329996332101
92.2418489931306
92.2624589696321
92.2727200671427
92.2827971476748
92.2885731416089
92.2778122121374
92.2687169594377
92.2640776025743
92.2732228023901
92.2796227810772
92.272970243675
92.2692350013596
92.2684767298676
92.2652059808856
92.2734641621896
92.2832330579707
92.2813064720903
92.2667894137775
92.2587614380454
92.2446797654453
92.237696661555
92.2440685148336
92.2369959715931
92.23679816422
92.2497249159853
92.2402643427274
92.2208803252907
92.2172399403237
92.2049955343151
92.2004442512039
92.2026732746552
92.1998748138039
92.1901595655127
92.1727288531947
92.1600433877534
92.1455134571541
92.1370517619049
92.1420065683945
92.1248534633048
92.0966601580724
92.0850591273405
92.0851196393601
92.0843880752037
92.0701756739026
92.061126499181
92.0489614524105
92.0322374756005
92.020669927907
92.0100220662438
91.9920586144903
91.9794366460125
91.974243677569
91.9742915707348
91.9467361472817
91.9254492420881
91.9349309564938
91.9496624550778
91.9506795825456
91.9341743144537
91.9271271408052
91.9256773251115
91.9142431352525
91.9095919395931
91.909670930965
91.9072089084491
91.8966613033994
91.8795763374391
91.8719730737527
91.8720267259154
91.8676927932292
91.8541533146487
91.8325224979486
91.8298979977863
91.8318521211277
91.8126271350491
91.7934820531296
91.7838657627048
91.7835194168084
91.7792359635678
91.7684814674511
91.7583348622204
91.735719974751
91.7300352248494
91.7437006498254
91.7475377835324
91.7314770787938
91.7113451972778
91.7106732447883
91.7043063397376
91.6956590243486
91.6908574993084
91.6845960350702
91.6801713370915
91.673919829137
91.6685385163465
91.6535701014153
91.6491306848049
91.6555125358098
91.6645695046234
91.6520556862784
91.6237825467528
91.6241825453921
91.6320368061543
91.6320426934078
91.6268496195069
91.6227226774354
91.618619258909
91.5995056833228
91.5844920625428
91.5902549935316
91.5943868093519
91.5858385100595
91.5744802026743
91.5652670770686
91.5631639568534
91.5597347404786
91.547121534009
91.5269050543966
91.5208369437042
91.5220764087109
91.5094257429751
91.4974009537081
91.4968455302964
91.486524443882
91.4722741799887
91.468814903553
91.4484343358997
91.4231779083883
91.4302370923345
91.4409437869814
91.4339085809962
91.4328578501616
91.4333164141965
91.4269604247882
91.4373750506489
91.4614310427334
91.4524618334089
91.4189223629095
91.4048816237097
91.4050882495251
91.4009272638651
91.4095805861554
91.4188593839981
91.4089284314089
91.4029204146456
91.4079051254031
91.4178004309009
91.4175805160878
91.41505802925
91.426490976544
91.4394552428216
91.4326909567799
91.4237147413826
91.4152040002772
91.4145031414155
91.4246756205722
91.424744897423
91.4271783123426
91.4318233444784
91.4288142043498
91.42098307229
91.424151106167
91.4354864429192
91.421262151958
91.3963134064469
91.3847274718756
91.3760308012362
91.3803407324359
91.3834571508249
91.3759199160146
91.3741565636372
91.377451672125
91.3807525445186
91.3770455488868
91.3708141819549
91.3714242551867
91.3787119883076
91.3903650743391
91.3699648205554
91.3586083353163
91.3652396120745
91.3516466761437
91.3465559403142
91.3505738085688
91.3483209500234
91.3416889791728
91.344053070824
91.351915675421
91.3593661970787
91.3671996073552
91.3710867550252
91.3613864118112
91.3464456325352
91.344439578984
91.3600683706597
91.3544590757008
91.3611758810838
91.3584921239575
91.3433660603771
91.3446913397101
91.3458420132879
91.355944064178
91.3648993324072
91.3594265141555
91.3571924081846
91.3760506917842
91.3887406756403
91.3893319024939
91.3968768177392
91.40515140877
91.4045872514732
91.4006223016489
91.3955395194417
91.4181827933725
91.4404117476329
91.4510428234241
91.4490396085541
91.4425057759097
91.4350495688078
91.4313441373933
91.4447775476855
91.4381697866692
91.4450530666959
91.4474771185896
91.4698675375722
91.4937018679487
91.4847941413369
91.4894443144259
91.5204721929571
91.5447976553776
91.5391754192776
91.530198908347
91.5486032851281
91.5502656914643
91.5535789374026
91.5682392349769
91.5716078325912
91.5888679156982
91.6206336445258
91.6379911163143
91.6152649652787
91.5873292784807
91.5785468145631
91.5962329729692
91.6047173959031
91.6056426378387
91.5995677470571
91.6001373092486
91.6157540911097
91.6286580617884
91.6326005605761
91.6408967706897
91.6324958222327
91.6292770383809
91.6473989351916
91.6681949212909
91.6726949824687
91.654202749739
91.6474277219021
91.6566675537616
91.6848548184825
91.6887992356984
91.7031028009661
91.7265347855119
91.742744757439
91.7524076460069
91.7303328500277
91.7140382499476
91.7212238596818
91.7589789590203
91.7660985628339
91.7492476794179
91.7565106197428
91.7691485058908
91.7815759933748
91.7911316223168
91.8068398755813
91.8028111904393
91.7801166561648
91.7797360340562
91.7966185043512
91.7926163520124
91.8083912585341
91.8471463227837
91.8493444416684
91.8375720022863
91.82330830382
91.8311417872549
91.8657413788985
91.8838750435227
91.8916614612741
91.8939622882136
91.8861434298756
91.9015948340484
91.9189726908125
91.932591994639
91.9359098897646
91.9559559669512
91.9462935897496
91.9409505075715
91.9595333277425
91.9560986417297
91.9239656161635
91.9259072982964
91.9598216322974
91.9525108199225
91.9526211233058
91.9792872263883
91.989865149315
91.9992249459988
91.9850586145038
91.9686087327937
91.9339179023163
91.9633806204735
92.0239695449067
92.0115745965386
92.0195168681792
92.0257073613318
92.0253565002161
92.0186725482224
92.0244502871734
92.0266577467339
92.0221711867941
92.0302801563825
92.0534894747641
92.0568656280764
92.0449125804481
92.0413663084351
92.0388252793555
92.051745235748
92.0741554525869
92.0963035604148
92.0976453452371
92.0746974121014
92.0569128169199
92.0479105629701
92.0952032535404
92.119334237319
92.0949740568367
92.089733448367
92.1198502137084
92.1191052316481
92.0900095090672
92.0775312764969
92.0969667570806
92.0893445482243
92.1089193017519
92.1202451193222
92.1412322227497
92.1616880075319
92.159518410482
92.1664808160247
92.1871143570988
92.1800169461377
92.1827427998565
92.1983438953648
92.2105227817945
92.1857443443516
92.1625636738582
92.1859829304647
92.2187885620056
92.2238301339833
92.2263116172512
92.237346502094
92.2456683992814
92.2683827375683
92.2680943612178
92.2277746117684
92.2180035027899
92.2159464089524
92.1926821004678
92.1967933751575
92.2419780343212
92.2371829654116
92.1901901123265
92.1943777976555
92.1980403142846
92.1824981094782
92.2083173825042
92.2227961971672
92.2414084914748
92.2511090774708
92.2534194812524
92.2431494969909
92.258287980534
92.2898690722726
92.2734147669002
92.2719119993815
92.274062510404
92.2954297210513
92.3541113754619
92.3437831988701
92.3091991582581
92.2632277099414
92.2776278327489
92.3327681013774
92.3854443035525
92.4223827262569
92.4272613342294
92.4244505630111
92.4352748944197
92.3983333425561
92.3887140117802
92.4184692735739
92.381349599375
92.3791884010195
92.4213864637685
92.4495701740205
92.4089849993352
92.3968995880466
92.4066024083453
92.3764874969238
92.4060604872494
92.4527650152682
92.4388584374517
92.3693255580702
92.3726959740066
92.3929097623057
92.3891790036109
92.4060540517753
92.4150201493243
92.4324965026903
92.4355570117844
92.4222622190156
92.4550536583412
92.4756203678457
92.517056934121
92.5126449443036
92.495171813021
92.4915393739673
92.4756375876988
92.4611851479422
92.4290498351852
92.4039602972643
92.4361721811236
92.4827282854151
92.4339435733913
92.4018118597202
92.4313007759008
92.375318149939
92.3003334391429
92.314496787338
92.3682098198174
92.3977147010797
92.3721818801733
92.3144363449884
92.3163493076336
92.3220046238552
92.3100804044832
92.325494114987
92.315404865737
92.2971755474248
92.2768906441661
92.2809339530176
92.3138900480638
92.3118407756633
92.2973831283089
92.3030075926855
92.3380296391875
92.3507626297249
92.3463969148016
92.3273411224558
92.2803692249265
92.3386971111718
92.3793614765084
92.3425982898852
92.2990622056327
92.2857934107785
92.3066262860781
92.3705669453176
92.3873029992812
92.3495210865176
92.3320460703431
92.3583273017334
92.3775652783606
92.3125329055534
92.266590471186
92.3078507696202
92.3455720333672
92.4271936636723
92.4704683690891
92.4355358504776
92.4417305852702
92.3767897605944
92.3267979097722
92.3492857428944
92.3958622576982
92.4189819656045
92.4418986348753
92.5015176085106
92.4968703322141
92.431563105252
92.3686595415744
92.3337732204561
92.4400050038065
92.6052772542925
92.5874338948297
92.5766577734784
92.5800036908461
92.5506343994671
92.4718843620542
92.4334863315021
92.4015050051157
92.3364240063575
92.4655070147836
92.48651882387
92.4761266085979
92.4890372489761
92.4635692585159
92.4367961578332
92.4927232914763
92.5170439071508
92.5316203548381
92.529565025346
92.4844629798521
92.4417974487595
92.4797119554776
92.5614745517911
92.5344278787587
92.514745298456
92.5187727767758
92.5786605667751
92.5854852844012
92.4878901089928
92.4694534780227
92.6034839140642
92.6152002518431
92.5430627836053
92.3942331342648
92.3206301799234
92.4277509284407
92.5032279138004
92.4169709962463
92.412030944347
92.4723762586619
92.4705800638061
92.4312091488929
92.4006203862363
92.4552924925103
92.5703193653466
92.4491076261053
92.2448812719551
92.3498319082732
92.4622207830094
92.4237602895229
92.3459748668182
92.324569644088
92.3935035590314
92.5247178227054
92.5548091745652
92.5958658222735
92.5877725907778
92.4357014935044
92.2623036983344
92.2461770227179
92.3102318678212
92.4467621705159
92.5963476382591
92.6139912789716
92.7221657341046
92.6983741707856
92.6844775902715
92.7769214121566
92.6926746397232
92.4099907851022
92.2760219801651
92.4083282506812
92.5548332160828
92.4260681446827
92.2963956819743
92.1975056958772
92.403769017755
92.7452947837259
92.6666511553295
92.464897375179
92.6373040687803
92.6942669316891
92.5899350110798
92.4000110777261
92.4151155939795
92.4622934131792
92.559673681588
92.6452491890209
92.6625440366498
92.6019422352094
92.5053926999654
92.7476679844496
92.6063357637871
92.3156656995606
92.404259250647
92.6495825085059
92.8074932466549
92.4974966210323
92.1435054124389
92.1897968577546
92.3382865555323
92.3658747759187
92.6661210548317
92.7794703618566
92.9915216008424
93.1025181798318
93.1579833048837
92.7036344959985
92.2111610570305
92.2455448501389
92.6046083266956
92.3380677603357
92.0450969318635
92.3822649634011
92.8675747054552
92.9887051412433
92.456613121222
92.2882544833586
92.4909594857249
93.0335452764248
93.0749486881649
92.4773404940376
92.4914415224686
