3596
4000.36533379555
650.420452594757
1
128
2
83.4364031276844
83.3918440385126
83.4233643166248
83.3704323844316
83.3657811748949
83.4432715942553
83.3954573049694
83.3994089322257
83.4607437231533
83.4662602530449
83.4667725599389
83.4794291763966
83.4982088246162
83.4899004926848
83.4676363011514
83.4273047358354
83.4353916201333
83.4461781225997
83.4300785882243
83.4517006613448
83.4558971273549
83.4006507994825
83.3888846914898
83.4249923928403
83.3814049649226
83.3509896627584
83.4117830625498
83.4716749876395
83.4265253795896
83.3672528108383
83.3927926730491
83.4471824297452
83.469677628721
83.4710705286507
83.4455236696072
83.3945320534188
83.3289839204326
83.2988578207363
83.3771305203615
83.4095248489648
83.4003592936129
83.3602772305432
83.3218189948482
83.3864295880725
83.409247604491
83.4096282644029
83.4583654169269
83.4569322746171
83.3234440531392
83.161028954289
83.1425915361094
83.1718142665264
83.1639160205547
83.312316322738
83.4294290156213
83.4162511280613
83.3226674664162
83.1829297570054
83.2318864334731
83.3971899629707
83.4464041940082
83.5398762244302
83.5526884980819
83.5345570611463
83.5426398696898
83.4832566737053
83.4244492388749
83.2732445160052
83.0170388416274
82.9933414480854
83.1104358264125
83.1487246354281
83.3137607304373
83.5027089093359
83.5886135699499
83.4177863723873
83.1429758111854
83.1549540476535
83.3286324903642
83.4651723895755
83.4637259087368
83.3050583845717
83.315019265304
83.4347886733232
83.2477580118831
83.0255414809064
83.2315092710154
83.4826547529951
83.6016508303245
83.6640572523788
83.640602056534
83.6464088266316
83.6499615144627
83.5817970210302
83.5715547303916
83.5297379420636
83.3081559205864
82.9786668821418
82.6949661371298
82.5848622577737
82.6432731404708
82.6244050447536
82.9577961454657
83.1456037076792
82.9609605317987
83.3606150146522
83.7839987611834
83.9825749714834
84.0994385974757
83.9972173452874
83.8544558394585
83.5754028358026
83.0928141312316
82.98851577889
83.4461485537272
83.7351752197465
83.8370207068356
83.6069861942793
83.033124777914
82.8600298497083
83.2060340457437
83.3821922715549
83.5299761876502
83.371612313161
82.9544465723617
83.1078573245963
83.6046481428156
83.8092438013432
83.9853824660734
83.9810681571935
83.5703265911993
83.2343827812004
83.4365223426618
83.5753839678473
83.2465562453799
82.7562059127889
82.558188678535
83.1380012331039
83.7143294047483
83.7760822089566
83.4274329447859
83.2046894959922
83.4762377226042
83.5087551578126
83.424628091722
83.7468066407419
84.0248939223544
84.0534708052756
83.9136734024893
83.7269490017416
83.6859389754342
83.2535667107709
82.3916124447373
81.8592939651017
81.8806502809883
82.4193632996548
83.447095643228
84.0893547832016
84.4074361441769
84.5852089089484
84.5656557886575
84.4899367950161
84.1599391036008
83.6637623081545
83.488640885444
83.5754807527075
83.3061650867852
83.1181878718793
83.1592758417134
82.7824783405364
82.5610457526504
83.1894022836694
83.4980250333113
83.4935476363691
84.0190583416473
84.1546743345885
83.7496881059531
83.757848049777
84.0674446922215
84.1229634438896
84.0292477080664
83.8461957654574
83.6900396144397
83.7609848104888
83.8517845984784
83.793768300586
83.504338788595
82.9266105908304
82.4790709074381
82.763209211992
83.356338030413
83.7073420967028
83.608803845829
83.2132625375955
83.2155950926965
83.7413988753108
84.0472691276103
84.2335525516344
84.353411967477
84.3348723449061
84.2156330411535
83.9929700215839
83.4715145758894
82.9910612511053
83.1395029696473
83.6155630392965
83.7612078234327
83.6111365127597
83.1604689506667
82.7366428286332
82.9482849320277
83.6065980571369
83.9405822695315
83.9075024370334
83.7117073430373
83.7831532783246
84.1009086427135
84.2194742949109
84.2348428964677
84.2450234540694
84.1424105201157
84.0142860121546
83.9252056760258
83.8743458225243
83.8626950333589
83.7951325708672
83.5584069152676
83.4307582193949
83.5592391457532
83.6682766286286
83.7458841931783
83.683992783379
83.3567015196324
83.2315603969276
83.4199228501385
83.5871418700004
83.7409529789529
83.8770126226962
83.9061929463065
83.890552222909
83.8596880718833
83.754734994508
83.3783802253334
83.0865063138629
83.3182353062699
83.701054674217
83.6673095365286
83.4708412142662
83.5484713102466
83.83417844582
83.9735332083545
84.10873151782
84.0983752913792
83.7233697697721
83.4285977513317
83.6307035491083
83.6836519625357
83.5529129407895
83.7931652576196
84.0351570194783
83.8404668369885
83.3278347274914
82.9612201043843
82.9752473313856
82.797953848595
82.8307380352505
83.6079431840786
84.2366043681018
84.3157413097311
83.7776121897971
83.1111409775859
83.5977023386537
84.4827602457219
84.5402372140956
84.6771633254135
84.87150209294
84.694935970098
84.3760826398195
84.0313590469744
83.5394577202035
82.9953924050839
83.1866807390192
83.5899073442608
83.6010801830392
84.0056641234562
84.637653625114
84.8562271090509
84.9098433437025
84.6579964548984
84.2002853449054
84.0257875382553
84.0927388080712
84.1412233887632
83.9093316772118
83.7631359204234
83.9949740412018
84.1343612040424
84.0848232587528
84.2082051012183
84.4110077849232
84.4457700864788
84.2743987505445
84.1769339850791
84.064370256777
83.5177009440468
83.06850801398
83.2447265476203
83.3581241668794
83.5458346071342
84.1005526090372
84.4666211431555
84.5701543396154
84.5979079572494
84.6178021369815
84.5465553306095
84.1071810451063
83.6881571320147
83.7923446926115
84.0925306803381
84.2713269166439
84.3429461917831
84.3904875890855
84.3964814437147
84.3109050950749
84.2579511483708
84.236085166816
83.9595072295637
83.5349517519431
83.4199222425532
83.3348849214837
82.9727752343587
83.1645840529596
83.9462555313047
84.4286398264707
84.6096496873229
84.6947273548361
84.6739346380216
84.6665145439873
84.6058122371257
84.2977702369201
84.0055628500554
83.9706600312716
83.8016534530935
83.3557722362406
82.8259820445866
82.7418859940919
83.5614377410412
84.4096071756122
84.4442264793347
84.0410592066385
83.8820205691859
83.8387006699074
84.1762162627765
84.741882876615
84.8404438923041
84.848412671384
84.8930927370152
84.7236598716412
84.5522457408429
84.4959862013935
84.4146121559916
84.2876448111529
84.2150174807858
84.0161264516251
83.507613453087
83.3039242456554
83.5973275786175
83.8686572624442
84.0830541832983
83.9949991118268
83.4566985870962
82.9791265875873
82.7690986050673
82.8888079630413
82.8260973057811
83.1107453475035
83.9599222724877
84.5852347215419
84.8031579984831
84.6845463425813
84.4750701253406
84.36982667458
84.3363866717288
84.2830547603008
84.0603606952729
83.9251408041362
84.0011452734325
84.0162681523682
83.7337304245532
83.5246406284327
83.7092950393755
83.8256509214657
83.5149878046408
82.9056493787947
82.3411121762157
82.332242059586
83.0904680791525
83.7495571951826
84.1861289731714
84.3731847964535
84.4202709876673
84.3768043841062
84.2210178699778
83.8301153693982
83.3772598927588
83.2316584763168
83.1640189937234
83.432088693706
83.8384583699498
83.8894285993056
83.8492083933279
83.6444938734873
83.4883816756313
83.7065695583701
83.7638473814078
83.5789191755329
83.6891421115528
83.6646249000719
83.6889099047551
83.9716921724853
84.0913210323999
84.0530525010757
83.9903014594794
83.8990180999382
83.6790334586327
83.6029759270243
83.5861364882713
83.5802483177854
83.6779972807691
83.6227577445673
83.4233785722276
83.4686890593537
83.4610147298647
83.4946569267554
83.7071072651743
83.893336622396
83.8394211481383
83.5487532362725
83.2979452524374
83.0025713598146
83.0966213555758
83.6228436004365
83.9338505219355
84.0164604144367
84.1038913339717
84.1399021415915
83.9369497826668
83.7816584191563
83.8490011116458
83.8014553294963
83.7172092352363
83.8076395015161
83.7467221372114
83.6355370438991
83.6498759072909
83.6684749406319
83.5906759182833
83.5714388375706
83.5212812273868
83.1655997462146
82.8638381628786
82.60183046662
82.7475059838465
83.3423605506631
83.7162731452019
83.8555112415042
83.9191341278377
83.975068029932
83.929835728344
83.9286240540352
83.8517332452895
83.7907378126964
83.7881294693567
83.7636847778563
83.6841322873285
83.6411803154022
83.5093275149032
83.4651723229694
83.5638734493393
83.5704416721267
83.5634874183206
83.5462733540535
83.4627072791095
83.3632604522273
83.3178514048623
83.4317780065682
83.5341662127617
83.5637081941363
83.6565693671578
83.7603867406729
83.7782022147796
83.7061972113285
83.5916953614995
83.4313872245797
83.3706740494407
83.4730303100706
83.5650875472642
83.607303296304
83.561015187266
83.4703881643177
83.4192099059816
83.3439081927615
83.3211961359485
83.3061676741779
83.2522077850792
83.2992789721297
83.3738193752885
83.3368448022027
83.2403884852709
83.2903076891556
83.5155189372909
83.5676944558975
83.4853716601976
83.5386850612414
83.5974684180082
83.5912531578527
83.5488067960872
83.5316321327331
83.4679825244462
83.3832419068247
83.3191427665247
83.3146009346115
83.175199034985
83.1311997712651
83.3068610408056
83.3394521309897
83.2761348745004
83.2551187929931
83.2346400364974
83.161237096647
83.1126057361014
83.1738339577712
83.2583411567841
83.2857185011685
83.3774987621898
83.4371219686469
83.326307441324
83.2190185709703
83.2142644959968
83.2425173440397
83.268318561714
83.2651389365934
83.2558504073486
83.3101241299912
83.2788807825788
83.1993991407381
83.2717817719482
83.3476859299938
83.2919425677493
83.2040595449664
83.2043856177456
83.1605346946356
83.1170612611305
83.158269313274
83.1832230394013
83.1395308320747
83.1854845402812
83.3005274847493
83.2798320181451
83.1709901921646
83.0633988321391
83.0528738247059
83.110443613788
83.1584626002188
83.1231487603233
83.1826903544072
83.1732665045976
83.065018814703
83.0759791805446
83.1647127805
83.1601588197036
83.1140577707957
83.0790781634341
83.0442159154866
83.049330910112
83.0240929677425
83.0277239226965
83.0520372168619
83.079034183343
83.1212872317459
83.1299725089513
83.0814079261476
82.9417576843591
82.8954248180233
82.9416345939389
82.9269800670902
82.8791481450227
82.9021096219645
82.9184733187296
82.7746681780813
82.6936388644353
82.8314684514003
82.9223874243591
82.8380966203586
82.712996423567
82.7444847223716
82.7936508292753
82.7498373092317
82.7082250438796
82.6949881182247
82.6940110026864
82.7527383225732
82.7259263868401
82.6347123114739
82.6226313958227
82.6539352674182
82.5879938710328
82.5263306517654
82.5129493101906
82.5966076653795
82.6568997787491
82.5946215685505
82.5592695922402
82.600423439247
82.5978681355046
82.5653485231899
82.5628017264767
82.4835772091355
82.4119849028647
82.4802489601805
82.4983528237563
82.4531766686252
82.5096332833511
82.5509020193772
82.5558079145441
82.566203026009
82.4831668288199
82.4449875535647
82.4569302745079
82.4048905354734
82.4088758568651
82.4336212994499
82.4148135729062
82.4013270110831
82.3704238024138
82.406158215932
82.3777707445268
82.2810613589942
82.2379806046032
82.2532047186577
82.3022737157002
82.3863121204981
82.3521355627812
82.297307947128
82.3868943347593
82.4440651766405
82.4311860628985
82.3817777913513
82.3529666810222
82.3709728950814
82.377222782249
82.3731073825575
82.3890295045118
82.4784480312496
82.5006076713836
82.4442113137433
82.3910599049159
82.3676172456555
82.3462499905816
82.3243021492272
82.2610036576558
82.2712629121772
82.3202397714062
82.2789182261491
82.2025233555887
82.2015786257269
82.2837621587095
82.3141188321081
82.2469788905542
82.2100082002919
82.1607118462981
82.1408689718932
82.1401435181876
82.1721673237167
82.206619671781
82.2016969969004
82.1676197408761
82.1925726382073
82.292845654976
82.3326948960369
82.3167080875302
82.27789908274
82.1931823646627
82.1932928920803
82.2552541642601
82.3473055258281
82.3252252176946
82.2166187929256
82.1211307887725
82.1483634941008
82.1306579099582
82.0652800889112
82.0138892680456
82.0260729383626
81.9900383618796
82.0219408682381
82.1148968308338
82.1441085128334
82.186442919213
82.1980154483042
82.1332440938174
82.070401602471
82.0485766923562
82.1248530477878
82.1157985091301
82.0277039609335
81.9740494545593
82.0116703931508
82.0573711367996
82.0713166157953
82.0826447425397
82.0804051067108
82.0926179890544
82.1086333046962
82.0577750247314
81.9900863326359
81.9876419262371
82.0522970822346
81.9986794201908
81.8724081285748
81.8181291279055
81.8707686662726
81.8819270698114
81.8960246989459
81.8929315096055
81.8800538420397
81.8787341659324
81.8534751259664
81.7970985226518
81.7611872637201
81.7459115757896
81.7190259414009
81.6606462798562
81.6354819206761
81.6511724796572
81.6663755569971
81.6022492663743
81.526072925904
81.4821226407264
81.5232611135196
81.5692996498361
81.6100740461779
81.5872139679293
81.5500184738026
81.6045900903238
81.5884270475696
81.5753884230731
81.6071259920736
81.6058703037521
81.602726726413
81.5907500178666
81.4996867290515
81.4616503759367
81.5357164282051
81.5513082852507
81.5017532660214
81.4820751728829
81.4647182109543
81.4800778831414
81.4901617981403
81.5091392819121
81.5533839432786
81.5159850218124
81.4536165462329
81.4549361787665
81.4601093158549
81.4406708272714
81.4173000982317
81.4049408521095
81.3967242951884
81.4159965262402
81.3991414748946
81.3577137215181
81.2966159778278
81.3304844530037
81.3118001658192
81.2419796442173
81.2381102406794
81.2822242394655
81.305593834459
81.3335197080032
81.390137487152
81.4150891452076
81.4207102046957
81.3636220394577
81.2910959824189
81.3344785700479
81.3407191653736
81.2994383121484
81.3003562235897
81.3176689754408
81.2758246113011
81.2391991017287
81.1886747774004
81.1901232972963
81.2371183148044
81.216493306422
81.2021133653257
81.2222746528451
81.2129216275174
81.2008040974213
81.2337779873292
81.2360105139197
81.145720612665
81.1020691188102
81.1055952590525
81.0672138217183
81.0773316130065
81.1389345996614
81.0684924339423
81.0557433601008
81.0699636940967
81.0651636449923
81.0620009881083
81.0432951072157
81.0149407447477
81.0122599747386
81.0425018233179
80.974321158548
80.8985602765832
80.9388215511453
81.0111253343511
80.9886347423618
80.9488255472618
80.9445884673113
80.9416681385068
80.9571724550753
80.9626408142179
80.9916471963755
80.985015926396
80.8910763990459
80.8711491692761
80.8837984161017
80.889372191887
80.8560935696833
80.8351943365747
80.8208544816371
80.8498754301017
80.8490994784827
80.782448992029
80.7350955674705
80.752480393233
80.7215322794792
80.7246185873145
80.6950251371501
80.6603178882928
80.6770046697075
80.6631850413778
80.6677611090389
80.7061505891287
80.6799527986316
80.6407068545415
80.6290974649321
80.6430730915851
80.6721330745395
80.6815471151232
80.612319372371
80.4837954248177
80.4437413501567
80.470905792442
80.5208090163995
80.5310871543918
80.4762354360176
80.4925950474816
80.4637855919112
80.3827397224374
80.3736499132863
80.3850090062773
80.3787307794369
80.4135712290671
80.3888106550762
80.4206496800911
80.4401341629311
80.3944444836885
80.4137314940245
80.4516613935443
80.3991019057015
80.3565067335282
80.3470696641867
80.3300097771912
80.3031937735398
80.2726688151595
80.2611121353996
80.2797771564844
80.2816045260751
80.2692996801714
80.2284074215405
80.2015396602474
80.2219467869241
80.2562045141629
80.2241542318873
80.2294294849612
80.2884351968898
80.2650663393458
80.1932945280114
80.21181158967
80.2026329395211
80.1534115761486
80.1310416371203
80.1038987829904
80.0446069200519
80.0502990931112
80.1254773031832
80.1422250484854
80.0994812695739
80.0211044003352
79.9545879737413
79.9808684912467
80.0349497379416
80.097021003142
80.1353231636096
80.1255775797301
80.0823018112939
80.0694703097788
80.0640032927928
80.0543886687484
80.0401250715693
79.9666153439708
79.9194933348902
79.9445846839904
79.907045038902
79.8540863584663
79.91610392339
79.9512573267279
79.9526470490821
79.9821112348448
80.0013247378086
79.9416017871421
79.8859631806069
79.8847727443902
79.8653745713737
79.8134526380152
79.7863784615976
79.7651781630381
79.7984822138567
79.854512358918
79.8488571409291
79.7248137310335
79.6341740517905
79.6222174221267
79.6263055618493
79.6721164115367
79.707322414404
79.7076852047406
79.6677483678296
79.6086838482566
79.6468025834461
79.6850628913735
79.6754348688532
79.7007988068904
79.7443199966166
79.6876811443643
79.6283654953786
79.64213616262
79.6674778070949
79.6830677105591
79.6897443185111
79.6485921871318
79.6024418353368
79.564557836786
79.5761599837383
79.5399197779835
79.4878755946493
79.5137655051236
79.5780237336807
79.5628780213673
79.504785154481
79.4781800394012
79.473346344042
79.4711976930738
79.4849507942076
79.4696951141922
79.4288897952369
79.40191286042
79.3920647618689
79.4048164044412
79.3892696720019
79.3257153053739
79.3074177263989
79.3105434708923
79.298818978659
79.3168724457514
79.3204512353987
79.2956571962301
79.2505165946301
79.2342333894521
79.2705651854642
79.2951341566628
79.3238173303914
79.3470272721796
79.3396060202662
79.3329430149997
79.3083173373674
79.2685125054787
79.255662475973
79.2338427771737
79.2006176121834
79.1308815771515
79.082887375989
79.0636071349361
79.0575209178414
79.1155473911133
79.159798957496
79.1437810454763
79.1544420244834
79.1624882597121
79.1390274261928
79.0845567082678
79.0454240503889
79.0260668062498
79.0722928007215
79.0721540457291
79.05715456299
79.071433572724
79.0687552023023
79.0558336189638
79.0271698603409
79.0221040894697
79.0472648658026
79.0807576716601
79.0402149938971
79.0005068759253
78.9964796571146
78.9746467557819
78.9953355441264
79.0271473155738
79.044668738291
79.02610067346
78.9900208079487
78.9910679858394
78.9969528816313
78.9453384998703
78.926942540301
78.9300139721321
78.9106331028624
78.8859865195465
78.8683292075527
78.9144276938468
78.9829428096367
79.0158389169616
79.001914263111
78.955311677591
78.9316846298299
78.9155206939765
78.9078074603611
78.890255871398
78.9096692492267
78.898881454277
78.829389302609
78.7849219505654
78.7851832418272
78.7858796915755
78.7537984611862
78.7126399788386
78.7362726875928
78.7804369344842
78.7478676353222
78.7399733791528
78.785904115495
78.8449644864158
78.8886462479714
78.9249634826533
78.8837518858598
78.8515071060909
78.8159464044526
78.7842338499058
78.7481951320108
78.7060631393516
78.7183783143573
78.7182253204711
78.7055407791556
78.6737381672192
78.6259495278002
78.6247959274878
78.6865455293248
78.6651242582993
78.5903456084362
78.544460343929
78.5457791758526
78.6009552873377
78.6312346451182
78.6308522848287
78.6276359348631
78.6075231006692
78.5883624360692
78.5430736773411
78.5426057888224
78.561708243249
78.555338358091
78.5022709543543
78.4256109403778
78.4073267015708
78.4300781884209
78.4261113586076
78.4889388518963
78.5432437771511
78.5091609239528
78.4702372142417
78.4140460861431
78.4076439221566
78.4752492417085
78.4762693915368
78.4427538258769
78.4626195457166
78.4641534548563
78.4627659723503
78.483645460461
78.5048763146815
78.4740172677721
78.4090819598624
78.3887107878663
78.3863026834479
78.415887736088
78.4552412633127
78.4664091738752
78.4708857311926
78.4921597466613
78.4852199340378
78.4652848969598
78.4531785983284
78.4036784818771
78.3739691356648
78.3983622448027
78.3998257995334
78.4264570301595
78.4474181292078
78.4381954725029
78.447687300615
78.4304366857149
78.447130006662
78.4341382014849
78.4065665296137
78.4252092426973
78.4453426933147
78.4570959068177
78.4261482129213
78.390408521695
78.3818745483184
78.3868039992059
78.3882653101213
78.4184855681853
78.4295964303961
78.4230429640989
78.387319563178
78.3844099785179
78.4113411594375
78.4278550392946
78.4395677821608
78.4395779374517
78.4365477194389
78.425815195458
78.396683092467
78.3887229260207
78.4299046012585
78.4325634061715
78.4147497677059
78.4113399641505
78.3792344360351
78.364763801037
78.396674386854
78.3757972657711
78.3402655072546
78.3438138224788
78.3684721811076
78.3879787302734
78.3940388964724
78.3870743562526
78.3392746106039
78.2871018074682
78.2779398345118
78.2898715652258
78.2777748011205
78.2681695277535
78.3124646204161
78.296776381901
78.2513768401002
78.2298432064032
78.2008128564036
78.2239528626327
78.2409600547645
78.2397972824183
78.2090378798288
78.16279742371
78.1657951667669
78.18631520408
78.1757392152681
78.1208762547559
78.0952876271434
78.128508256788
78.1296894523226
78.1296601488306
78.146897134414
78.1244919943879
78.0723587982286
78.0664904780338
78.0947910838164
78.0831234766963
78.0744496184424
78.0609765441535
78.0457765416668
78.0394579770223
78.0259407435518
78.037905391315
78.0271337861708
78.0087229877155
78.0068473093728
78.0143728584877
78.019072768916
78.004532630034
78.0067153188455
78.0456987233307
78.0683897424084
78.0464313531968
78.0517165536097
78.0713669967593
78.0615217365666
78.0749260840159
78.0833889239631
78.0525949585207
78.0364234338358
78.0409154958321
78.0236530671671
78.0177829625625
78.0138733345703
78.0242765972579
78.0632943324776
78.0992426132896
78.0979107367054
78.0883359068527
78.0734214045219
78.0387370963898
78.0553072127358
78.0545729602081
78.0118478145975
78.0341662190124
78.0737459406165
78.0525451079825
78.0491474037074
78.0864615243744
78.0690763058909
77.9801311427958
77.9292837724486
77.9406451204176
77.9344480292761
77.9633001436148
77.9826519495848
77.9557523430567
77.9482288120974
77.9455575312676
77.9455457372265
77.95862836961
77.9648854571902
77.9665611975718
77.9500702253188
77.9383789716589
77.9254890475276
77.925639376486
77.9469731338737
77.951621078583
77.9325099015647
77.9286808935527
77.9247036421541
77.8910818880687
77.8731600051142
77.9044444128504
77.917447937759
77.8957367052584
77.8761538706197
77.8701191333211
77.877731387811
77.9023115308915
77.8845318073738
77.8350485274592
77.8087327744616
77.8144372268976
77.8372876019027
77.8407459753047
77.8730370418843
77.8943900626188
77.8438477205672
77.8109983767651
77.8571616350092
77.9121879114151
77.9004066825663
77.8479749971297
77.8160354727055
77.8198075453412
77.8590627835194
77.8814806110538
77.8626577189155
77.8656165589312
77.8979723218363
77.8867105401417
77.8329876161007
77.8182242034739
77.8763425770488
77.9074574781231
77.9049136632642
77.9421759638206
77.9687767766423
77.9797967678782
77.9630931609896
77.9404196932276
77.9608239350787
77.968003060731
77.9552944544436
77.9886363172964
78.0189483786016
78.0079249059435
78.00985863192
78.0150754910322
77.9929818317875
77.9991332697286
78.0506433404502
78.0952615420251
78.1064411519645
78.1119119472838
78.0994453656627
78.1220896582346
78.1561446466916
78.160788163874
78.1607359394654
78.136663535685
78.1255117592581
78.166540614032
78.2033332796289
78.224585154611
78.2475601713638
78.2423368965354
78.2321982555129
78.248599208132
78.2629004884449
78.2852162920323
78.3002334095521
78.3253468732118
78.3567039503973
78.3388269245708
78.3120809137141
78.3308653800972
78.3686152648686
78.3642234484181
78.3557678163098
78.3863668382405
78.415452444988
78.4452170214385
78.4695008171757
78.4797207877507
78.4842637694122
78.479329057629
78.4826778421735
78.5069143023966
78.5143229881857
78.4967932890765
78.5071445735478
78.5498015927709
78.5349746127608
78.5151567404006
78.5545765370098
78.5867390711738
78.6150233618661
78.622967372679
78.5877370160822
78.5656041506117
78.5641941316022
78.5847156880782
78.6285849590193
78.65787733377
78.6691897336534
78.6738142909677
78.6871748050918
78.7267269418489
78.7363093602426
78.7075223205424
78.7136001006423
78.7339091687851
78.7134505590348
78.715085718709
78.7388753066095
78.7417467121281
78.7631825616559
78.7683391314825
78.7395012533516
78.7363953304856
78.7440092490959
78.7588513509418
78.7720117342485
78.751321019725
78.7380817700238
78.7490191095006
78.7623620765987
78.7802302218433
78.7817395762233
78.7849768685803
78.766169257777
78.730550609243
78.7478259556969
78.7647906524734
78.7437924280506
78.7391655933762
78.7372121487387
78.729240793483
78.7286303050802
78.7290003025041
78.7395342221076
78.7258955070655
78.6784598603721
78.661602299771
78.6589993594844
78.6548788220731
78.6657923811364
78.6589694647751
78.6376437096415
78.6316128010629
78.6304687732019
78.6209967960075
78.5959346802395
78.5708186542749
78.5617820773953
78.552095114699
78.5623777027941
78.5858370230992
78.5637260448967
78.5286273042467
78.5281782740767
78.5263292836501
78.4776954456005
78.451365425975
78.4602378493016
78.4539714083421
78.4518060233371
78.4608051233564
78.4559259582419
78.4223371165567
78.3752543855423
78.3639270775123
78.3684027551762
78.3470343619939
78.3280909289453
78.3243027457413
78.3075786472062
78.3061451847504
78.2822134874407
78.2327734850397
78.2337587453633
78.2506101823956
78.247374056829
78.247459133147
78.2571690080331
78.2815095230437
78.2943742214436
78.3046062125404
78.3191228035587
78.3122975283341
78.2943680770819
78.3058531880495
78.3559972518309
78.3712197163775
78.3219097952588
78.3038459498898
78.3366774994573
78.3794691699011
78.4041447076083
78.4084948872593
78.4088244479844
78.4329178540672
78.4972651095826
78.5136748514511
78.4724514709778
78.4729119455635
78.4926406737204
78.4981493553891
78.5043482094894
78.5416967156695
78.5755918709907
78.5719992822826
78.5901185347976
78.5861693466615
78.5721652469399
78.6202601601545
78.6781575325255
78.7106660032452
78.701014077945
78.6750445235094
78.6907939966202
78.7154310113924
78.7538364133921
78.7957095195244
78.7728231164003
78.7659989524244
78.8069651871706
78.821658247509
78.8037855687049
78.8160886401486
78.8452088793814
78.8743800630017
78.9179320834044
78.9512459589536
78.9164467281323
78.8988611094872
78.9364877728142
78.9794528071078
79.0211251469987
79.0562313103918
79.053998026428
79.0227688933462
79.0733237493068
79.12936353186
79.0984364378716
79.0910544477734
79.1084316512062
79.0969822091356
79.0841131463796
79.1256810987622
79.2210266141191
79.2295313355765
79.1806472616675
79.1600608123147
79.153629354315
79.1889261970037
79.2032571834573
79.1864879053308
79.201950127051
79.2436904407164
79.2440451197246
79.2378872946003
79.2321394489613
79.2288322924035
79.2302259463374
79.2186204573594
79.2265818579385
79.2541216575849
79.2334799990273
79.2102704472826
79.262766352528
79.3328290693076
79.3243218986819
79.288081975683
79.3024336437017
79.3455082996598
79.3174076394436
79.2603342802697
79.25158730602
79.2501708986897
79.2255860941947
79.2152149130627
79.2000422132502
79.2182320765418
79.2628191776771
79.2485688522701
79.2103875325568
79.2328382156404
79.2401720776698
79.1793758676604
79.1350178554337
79.1464202112254
79.1625698194645
79.1456261412928
79.1438732124399
79.1780837196319
79.1678089892301
79.1330867140275
79.1237460667071
79.1177891820697
79.0658811559921
79.0236242071
79.0865530060799
79.1549803648578
79.1129969063238
79.0333567600686
79.027515165349
79.0461055213479
79.0149015746226
78.9903822690393
79.0314843870945
79.0722862675038
79.013847374841
78.9544588082792
78.993390780726
79.0040168501834
78.9854945582355
79.0382949972811
79.024464138406
78.9654380291654
78.9443949854294
78.9597646765441
78.9675420061489
78.8892568381876
78.8588212374028
78.9392009951477
79.0102682168842
79.0431166223163
79.0698338753875
79.1119147619414
79.1183084317865
79.0506340049591
78.9911452314681
79.0139826734587
78.9969808473922
78.9872947579559
78.9735900172724
78.9926296829967
79.0443617267018
79.0479752675054
79.0341750405917
79.0536595355507
79.0416873057443
79.0159282309428
79.0610895107874
79.1032555370024
79.1057059286256
79.0992079645285
79.0953238337941
79.0815334265696
79.0407567627793
79.0626855847092
79.1001302947421
79.0947122706191
79.1080823023539
79.1437565979909
79.1495091463702
79.1046984366828
79.0702151363219
79.1345751507881
79.1687277902397
79.1190888610806
79.1398677068262
79.2137505893426
79.1945813037588
79.1268685557197
79.1339582625023
79.1475119317213
79.1557641388909
79.2206256965443
79.2449671436964
79.2112182266462
79.2047123238973
79.2028858653639
79.2298353937927
79.2718746855873
79.3042615119588
79.3344979358133
79.3339765534397
79.3025459768184
79.2430534875107
79.2487535705957
79.3376516400652
79.3506647976143
79.2817406110532
79.2757711794737
79.3198182097114
79.3195483233903
79.2999274856365
79.3590141221222
79.3718124534982
79.3749260171456
79.383314891645
79.355858122339
79.3925392163241
79.4604699802454
79.4637530436007
79.453359251163
79.4685737574304
79.4244086059594
79.4204218459944
79.46833053012
79.4770762893971
79.4780838154108
79.4851339226165
79.4933449122469
79.5095979895507
79.5207806495063
79.51790945255
79.5316730272325
79.559697170788
79.5632777705971
79.5677907028757
79.5827750659979
79.6066016730134
79.6174896856515
79.6441229834955
79.6263595496365
79.6042967296849
79.6295399242763
79.6453223881291
79.6648287557911
79.6644297122616
79.6599436794648
79.6580167262315
79.6737197870711
79.7134804536001
79.7339599975027
79.7527074971975
79.787999254058
79.7654141265197
79.7649116320444
79.8294372964522
79.879754397286
79.8701094553953
79.8298800846836
79.8113183482861
79.8139331883192
79.8076351010203
79.7866627797515
79.7385016782556
79.7713919913527
79.8368923217305
79.8123970995378
79.8104378236748
79.8516718776427
79.8424184311043
79.8301001522881
79.8771174492163
79.9324958946995
79.9110447532081
79.8720866242065
79.8373142094252
79.8460371014215
79.8926650269791
79.8619416574651
79.8234541384893
79.8506877367687
79.8708398048209
79.8979817904543
79.8992212375174
79.9032464960522
79.9092656673496
79.8965421657101
79.8768866472562
79.8875790910845
79.8721853289531
79.8400282082084
79.8339830028487
79.8131691335502
79.8211523254642
79.8710546998032
79.8689285287065
79.8378607285841
79.8417930761986
79.850852471921
79.8425073209974
79.8499573043588
79.8396441669581
79.8335768362832
79.8025174827674
79.7878676452089
79.7910646287662
79.8017825766189
79.8349434093099
79.8850589346585
79.9643356482065
79.9589218345979
79.9030458307931
79.8775182077563
79.9025338269995
79.9673268053908
80.0128010735989
80.0376091961319
80.0916302431471
80.1231271425713
80.1319012582451
80.1497802169514
80.1510458189299
80.0879673943759
80.0599882355399
80.1217669490983
80.1858812919622
80.1909607945866
80.1464556665096
80.1565229007834
80.1578829030571
80.079603176719
79.9592859195177
79.8587781412627
79.7507134993067
79.722398070965
79.7401403005915
79.7585945686542
79.8035809241921
79.9237917256939
79.9342480664549
79.9504552007091
79.9640999745067
79.9797921400554
80.0023707856344
80.0414645061867
80.0346718123475
80.089362574421
80.0228367570758
80.054239526163
80.0349593037333
80.111588902849
80.0409533802901
80.0996863206887
80.0501954332918
80.1520910358894
80.0237164227028
79.9877409700366
79.8505027952104
79.9842220484606
79.9042536296386
80.0133756259482
80.0419099417124
80.18985269534
80.128863393981
80.2261919584586
80.2569932261591
80.2849847610157
80.3528886275271
80.39626762483
80.4349932038002
80.4414540702368
80.5350151648953
80.4809596787281
80.5526001987299
80.4956897673913
80.4954657132376
80.5535992839687
80.5860559282331
80.619320337759
80.6146797615058
80.6810998414216
80.6841321260886
80.689285475143
80.7742719278265
80.8441715375908
80.8569800245001
80.848519222983
80.9030444011344
80.8882607508345
80.8702927358756
80.9169632421692
80.9862927985403
81.015568992437
81.0738458896997
81.1200819235562
81.130734577745
81.1514805479406
81.2106285094193
81.2009947161889
81.2169125651714
81.3320726614474
81.418707469286
81.5052415026855
81.5158872868739
81.5843781961409
81.6998984514653
81.7756985070163
81.8187385968335
81.8796266397333
81.9658537943591
82.0399109586309
82.0692905069338
82.1414292700917
82.193144598718
82.2760666085754
82.3000129277608
82.2890315135804
82.2924832144772
82.3952994313364
82.5997375427184
82.6296228710499
82.6296869652814
82.7199441909701
82.7588147696809
82.7834851461197
82.7687422115037
82.9128469696785
82.9919865444289
82.8299208609006
82.8461140554195
82.9522205472584
83.0090917497613
83.0883410247708
83.0908587366319
83.0154189317527
83.087752575325
83.3028607605197
83.3532897907509
83.3317897863033
83.40489956676
83.3945740559362
83.4458339592607
83.5592912809377
83.6307550099673
83.6266765608313
83.6643513630269
83.7768053579133
83.7705447967719
83.6587471980105
83.6206403127014
83.7905636780713
83.8822657279997
83.8575394092352
83.9213758029195
84.0599605675717
84.0714670941715
84.0785247403915
84.114029870716
84.1773470794669
84.1632737034391
84.2242799964771
84.3008543639109
84.4438607610195
84.5976180305671
84.5838508262853
84.5332636548836
84.7107784328037
84.7627082712762
84.7643245390669
84.8231398981549
84.6972744717551
84.6697257098838
84.7759943533116
84.806954039941
84.8386171005698
84.9616042626573
85.0942351370035
85.1932117750402
85.1695152916873
85.0453223299607
85.1014874426153
85.3053763147287
85.3908587174256
85.3539127413477
85.3839038554654
85.3835822718442
85.3665728272245
85.3910922234256
85.4290023935181
85.4718124634215
85.6940388770709
85.8287509631768
85.7375745331642
85.6848319602394
85.8194275435935
85.8229897696182
85.9164616283646
86.0381026547657
86.1549718884101
86.1391651356147
86.1043343371303
86.1331148606456
86.2316819564194
86.3721188478569
86.4175209098766
86.4365741218769
86.6307230642987
86.7782077199947
86.8986893841223
87.0223024469511
86.9843077736567
86.7734119975922
86.6709433004127
86.8065705220001
86.9174349144672
86.9963772274614
86.9901721620563
87.1038887330659
87.2675986250741
87.1884303323542
87.046599872894
87.0421848385028
87.3484899672983
87.7126732058467
87.7522340578152
87.6307352310473
87.5349787496667
87.6860671909281
88.0269217251826
88.2157297281059
88.4375647969777
88.5352730228371
88.5612396360893
88.7167109179612
89.0161118574579
89.2409775004498
89.1935704320486
89.1254873995828
89.065286124114
88.8603553576173
88.595849952604
88.1016179651014
87.9407040015373
87.836848207371
87.4561835050703
87.2080930256036
87.095682699564
87.0464756762139
87.0446695609828
86.8761801173092
86.8434407658247
86.7592184031847
86.7935686821542
86.5956801463313
86.2762467719537
86.0031289159555
85.8536033912511
85.9549269211196
85.8425078353607
85.6324065826252
85.6123487101208
85.627305823012
85.5370363484252
85.3559964489912
85.3216517226315
85.2482683956229
84.9998969311809
84.8198009247522
84.8447425551344
84.8047236039714
84.676102893129
84.6601354913336
84.5373480524439
84.2746599271278
84.2553925170452
84.2087979971303
84.104544569087
84.1185972180511
84.1983327776543
84.2394666604602
84.1849682598651
84.1346126043219
84.1457276971172
84.1460760197112
84.1349113367834
84.1413918385388
84.1289757047061
84.0942280553519
84.0668089423868
84.1085422438015
84.1690140570441
84.2365048783747
84.2644770808846
84.236986266355
84.1975252182029
84.1735190672607
84.1552753370519
84.2437662920981
84.377473908311
84.4361565354871
84.3553391909274
84.3591007106298
84.4460895679308
84.4288189013731
84.3703812916989
84.3329007916456
84.2992427153991
84.311937084943
84.4572128001749
84.5566609541974
84.4741785543509
84.3647375924507
84.3122731292149
84.287625838742
84.3439282131715
84.4225979419392
84.3701516440975
84.5125138777347
84.7214474397783
84.6577840307999
84.5757088709468
84.4949218947735
84.581697053783
84.7658017626354
84.7907481398308
84.7670527889109
84.8511354263815
84.9847060679259
85.0488435047143
85.0489937507228
85.0403594204244
85.0537339165289
85.1276630736165
85.1320210356679
85.1637486866331
85.2484412260892
85.3828667167862
85.4503287859434
85.432286458061
85.4620719629667
85.56622010845
85.6158871171988
85.6716699730148
85.6785796435507
85.7379426343677
85.8177141938897
85.9480416698671
86.0241111448214
85.9841574314688
86.0366954025671
86.1988308941175
86.4088395933806
86.626644847784
86.7994124203941
86.9659786608674
87.1606141655235
87.2893617704516
87.4859600413624
87.5187714896604
87.592192959377
87.7182600198994
87.7106866672613
87.8032825243791
88.0337890757507
88.1108892394095
88.1469553345599
87.9877499511917
87.8827084250677
88.1308533121588
88.4056105049952
88.4776793933545
88.6291371227242
88.7286418917383
88.5708463928281
88.558319034587
88.7133684280711
88.7646922124321
88.8537468923995
88.9465649164694
89.0491403624889
89.0937283544652
88.9826040384346
88.7591851376117
88.7340798658647
88.7100858626008
88.6375208133987
88.6878831819827
88.7809000778648
88.674049683378
88.6183504088153
88.7585056278035
88.5872433693013
88.4007600821262
88.5757808259923
88.7422093835441
88.5621615644932
88.3236489243726
88.39015658901
88.6885428564364
88.5789889762627
88.4265461896475
88.3441266108625
88.3028292766575
88.3234384697059
87.9080543643624
87.6048169092768
87.7957603890155
87.9272633936224
87.8565502613214
87.723508864446
87.735417160545
87.9452209207905
87.9736788060622
88.1150526555821
88.2310660752366
87.9569788089359
87.7593779078744
87.8284888286968
87.9582544887443
87.9264281275803
87.8871502992438
88.0174645450809
88.0663779307112
88.0658499531918
88.0676200513191
88.0867544338389
88.1858316392509
88.3753784952964
88.5492450810298
88.6441777347166
88.9863097608378
89.1925167711917
89.0027573658867
88.8621749703086
89.0238393720753
89.0413675392298
88.9737570402517
89.0589863539072
88.9993429539994
88.6979992513446
88.4540057939054
88.489050638433
88.5161881340278
88.2532286658936
88.0884673415596
87.9187345499672
87.9310564792404
88.2025488798533
88.217616063216
87.8939393509614
87.6000645178498
87.3270105343283
87.142923614036
87.1287480745525
87.1702688427244
87.0810227591306
86.8338266917486
86.7531245016481
86.7549578327965
86.7505517538268
86.6947390768175
86.5996836903618
86.5400467503244
86.6146932834242
86.6813630903163
86.5084913871825
86.3120027748898
86.2568395329508
86.1685073932726
86.1236423357573
85.9783121728916
85.8378079957089
85.8821269526055
85.8575478450883
85.6841867967365
85.5542295785935
85.4911500748988
85.5485086184401
85.5305434424123
85.3568852947854
85.3363601708778
85.43582929255
85.4959519508208
85.422026696275
85.2662633432881
85.2130920479224
85.1221325278236
84.9690500518065
85.0749066320797
85.0992892949663
85.0675515415006
85.0185925212376
84.8054659417727
84.8492398880037
85.1079039510014
84.9877237381881
84.9694953030384
84.9974692122117
84.9927524061719
84.973980959866
84.8953515206777
84.7718335280836
84.7698482066973
84.7564105840294
84.7754860475617
84.8474747546901
84.8099837084057
84.8283107637057
84.904924792378
84.8909824929317
84.8741409985921
84.8627649956226
84.7862913162863
84.762266308819
84.7884482379434
84.7917083388297
84.7680733395755
84.7413853087784
84.8081605848655
84.8202453881138
84.8021773721189
84.8055362366047
84.6996474903062
84.4955865601465
84.6199450380341
84.7848089861332
84.8372143264803
84.8471792796806
84.7626675118661
84.7623187988959
84.7823027831553
84.8312461130726
84.8268243233912
84.7090079113276
84.6890109923328
84.7744989120792
84.6975952381963
84.6368741316149
84.6548368774687
84.7149052083758
84.7506634328249
84.7913857036671
84.8035372867495
84.7243550962007
84.5229696494946
84.3824757703236
84.5145539255573
84.6520920457011
84.8413336905879
85.0178293492528
85.0540855024165
85.0056457404825
84.9350177476343
84.8199536685763
84.7951936445957
84.778565977297
84.764425992957
84.7923175289352
84.8069804957668
84.8506675810021
84.8996001447844
84.8705782404966
84.8504351467723
84.8965044669926
84.9040677581549
84.8992091916083
84.9162314349111
84.9034727255716
84.8340029572168
84.960384979335
84.8997632283624
84.5234980334176
84.3640533471161
84.9475738341627
85.119283291936
85.1936317022684
85.3024975799425
85.2693707461355
85.1429647878825
85.0011312537435
85.0088335955687
85.1109178189381
85.1310800409214
85.1168210418504
85.1274587530328
85.1374249228099
84.9104596232975
84.6120503586547
84.805064408617
85.2189843246788
85.317911343838
85.160381566439
84.8552487962162
85.0931989305225
85.4250113887921
85.3984632099911
85.396128622515
85.3675959952745
85.3590000583483
85.282457459427
85.1451031365953
85.1946775195888
85.3553931466983
85.3844137042263
85.3937675145599
85.3837615969632
85.268040808757
85.091091733554
85.0190401746715
85.2360934148481
85.3301728591546
85.3376032950903
85.4959984001809
85.5668427622006
85.566070833376
85.5479103085705
85.4249504126221
85.2837413840999
85.3048048899059
85.3089377051726
85.4389670593712
85.8386630284088
85.9153582046591
85.800627718135
85.8579719146001
85.9653424882783
85.7569122460582
85.3234181341426
85.3927450039319
85.764302399138
86.1699973247579
86.5106189687417
86.522041838243
86.5158201037689
86.4062104286858
86.2170502751306
86.16400339996
86.4523961853323
86.5342507713085
86.4863502962152
86.3554601852076
86.5240734664449
86.731181975191
86.8410095654516
86.8656284362412
86.7759220307475
86.8085568714879
86.8410826240353
86.4838630327139
86.2106853623925
86.5335673094023
87.1393589644502
87.4001885738016
87.2022770423137
87.2070485222072
87.5640539456432
87.6244743167711
87.6537245893102
87.6234075089905
87.4424155143628
87.1176437100839
87.2278920188712
87.6415013408366
87.7258492590132
87.675466423732
87.529114935713
87.5191576255592
87.8838952428052
87.9856526006461
87.9395036773613
87.7594608094791
87.4388530624657
87.3674943972081
87.6142672592149
87.458730756568
87.5237636744701
87.7296077424288
87.6968510693899
87.5828483121495
87.293875170041
87.0215127391374
86.9289196350362
86.6634328709302
86.0862624947514
85.7345758501797
85.6860688915302
85.3373836632578
84.8024602754147
84.2356881166997
83.444769484497
83.0410058788531
83.43048413767
83.3070874788712
82.4388378439985
81.7633967989559
81.5957436790269
81.3698796650603
80.7946108594939
80.3905083282807
80.0409328776947
79.6252745520952
79.2309290057777
79.0280699038001
78.7915280109419
78.4098899386706
77.9247993351709
77.2378491098989
76.7574475790349
77.1218963825369
77.1762848858892
76.3436724582942
75.9766248965034
76.0772900098921
75.5810421916543
74.8757921585306
74.2115781142415
73.8582547087282
73.6019339566081
72.9504363218621
72.2327962529736
72.0532785135654
72.0033126585446
71.7832083973495
71.8069341018059
71.2428682960733
70.0945613503572
69.5247553859336
71.0558883410976
71.472976327904
69.8844478632206
68.6314392908027
68.381352079953
69.8126904720964
69.3892315238463
68.1392396102957
67.4761009820777
66.8834333529744
66.3738819611803
66.1025684850961
65.8125254903256
65.7167216378517
65.2367409630656
64.1124087338033
63.4208221364014
64.4828805530485
66.1912190633636
65.7270127771618
64.5847457600979
64.5263215916895
65.2010419616136
65.2377702968077
65.0168217778926
64.429665018524
64.1858138006622
65.8022724143825
66.599926478389
66.0252760569807
65.9660815444212
66.4186721640363
66.2755571783173
66.6704475913282
68.3048283326198
68.6731965503033
68.6508803307393
68.8261702098373
68.7236922970886
68.357786119759
68.8382574263655
69.8623868944635
70.0927232019216
70.1993533675776
70.3562380101342
70.459039092525
70.6147862881383
70.5296217828014
70.0054837657112
69.3230367925347
69.0221342733463
71.0749495348858
73.288709794604
73.0248029805377
72.3478300076059
71.7770425665997
71.6096593478791
71.6980219179706
72.4811387738011
73.6090757425218
73.5035198130026
73.2503265089276
73.2888861194373
73.2385910357062
73.2254872614053
73.1769397332434
72.9236289438418
72.8016947750955
72.4443534178726
72.1139760108571
73.8123288779669
74.8368281504554
74.634498980375
74.5754376026071
74.5483934152205
74.4856445316998
74.1873151059442
74.021513981345
74.5129792227508
74.946306983009
74.7889215787489
74.3296927841008
74.3032752348733
75.1962344532147
75.6395911632704
75.6541276806969
75.7107351871889
75.632950852016
75.0883293807887
74.7004178520314
75.6317341309501
76.1847838800634
75.8369533492647
75.4622484444509
75.0047731751612
74.3608569928027
73.5108686203405
72.7161465218973
71.8958588061173
70.9186506908443
70.0440260650331
69.2574917883898
68.4419486580215
67.8385348114309
67.5672152140658
67.4435927077045
67.419345851408
67.5809805994118
67.8391810352999
68.1297637213842
68.4190688696057
68.7172948466719
68.989648018418
69.3311757665586
69.8066665993848
70.1271603477611
70.3658217322565
70.6352707446172
70.9058569703151
71.1896296141196
71.4153111667958
71.5901913590912
71.7999023290958
72.0024437562816
72.1655715370045
72.2850420531191
72.418280660027
72.547704447367
72.6596325476345
72.7802876418916
72.8334813690884
72.4992251852212
71.822615563694
72.1592981181484
73.6620268260502
73.9980054670196
73.9087029626118
73.9198514060339
73.5471243143461
72.7529162732593
72.6457284018463
73.4196976425176
73.3895263375437
72.8732653173033
72.288571403142
72.1275601097884
72.3660365240576
72.3149523349445
71.9052082328275
71.0522563009572
70.2290816481199
69.9151222450279
70.3625906733289
73.1463162979767
73.9341644874243
72.7024653849657
72.1896448001018
73.1452541591067
73.4401026399637
72.9254507507341
72.2503829974031
72.2295730709324
72.9458664854041
73.212858516645
73.0506618590051
72.5295362558789
72.2499911584782
72.6926864165534
72.5629189965483
72.2204109389094
72.483272028895
72.2780633684517
71.896099468774
73.7777515696019
75.359850039361
74.9597493670276
74.4537028217919
73.7679283500498
73.0559254573181
73.406095262453
74.0631940659306
74.3026396994138
74.3705517621071
74.1005633878138
73.7773383461906
73.8852394764637
73.8186228943127
73.6208779385102
74.2420807050228
74.4224582184706
73.8950500964588
73.3560228017614
73.3721617156502
74.8618135420583
75.5728865025121
74.6875675578165
74.0798513812121
74.6323545105327
75.0920239495702
75.3904175893444
75.1142635935312
74.6204929179945
74.7434290248887
74.589548322056
74.1137921862649
73.5999969638989
72.917549536476
72.2524631031423
72.6723656237928
74.8992407493293
75.5941122933161
75.0515368193388
74.5385226606508
74.3755931657006
74.2500673605393
73.7251023951686
73.7879403363453
74.1120129994638
73.7378876243857
74.192135678431
75.32840922683
75.5472209814345
75.5596266454151
75.3267181971232
74.7368732414641
74.2947006416136
74.9061813468334
75.4690957598435
75.5880661246172
76.095067551592
76.5687476734827
76.6457310674354
76.606888456506
76.4794749116872
76.2327729858205
76.2254611401958
76.4158292605171
76.475860422152
76.392783657115
75.9133655491886
75.640707051836
76.0515651364572
75.8571750403526
75.329268396971
75.0586927062285
75.9115895640028
76.9420022911725
77.0775202192502
76.958741664643
76.8825864135694
76.8261245308402
76.3633788128911
75.8910244940928
76.4240981257815
77.0411138671674
77.1829016346467
77.2602605371959
77.1862272239315
76.7713194099257
76.3883169779349
75.9426413137955
76.0148340045942
77.4140181015069
78.648260813858
79.1261599776328
79.0347426607593
78.8778643130594
78.9213361720506
78.9859260010645
78.7633470108019
78.3980876750685
78.6020870200128
79.0598598238406
79.2311637768956
79.2757999976093
79.307116548786
79.2602713360504
79.2011852831872
79.1608789688399
79.0968099169071
79.0282119686221
78.6289103489
77.8887887226623
77.9739040015663
78.6975193030746
78.7162044795975
78.4381283093344
78.2281772929337
77.8748023117905
77.284505967646
76.9604426662891
76.8186977131148
76.4857186461919
76.1056656333895
75.7211932626535
75.0835130287642
74.4618170067665
74.4082072580729
74.2101026256413
73.7926756197948
72.9002549117154
72.3110218878665
72.6832223354424
72.708168175878
72.5685207016225
72.4538686346862
72.2649014960596
72.0315256391912
71.7792691800096
71.508804312663
71.3498801017508
71.1888475625548
71.0702308744937
70.9079522232237
70.7556270578419
70.4366171551974
69.9832111710759
70.0649287744755
70.249015072186
70.0768546432467
69.9331806767838
69.7469020837303
69.2825395311003
69.2408826966882
69.7160195618985
69.9543589252058
69.8364227502326
69.6404412951485
70.1190100237233
70.9275436558464
71.0358704394236
71.0110994547926
71.0658011194574
71.1719270720396
70.964412113832
70.613786770523
70.947828028697
71.4943627713462
71.6346058416337
71.6047880538912
71.6000679638007
71.5770947487164
71.566086092246
71.5198631867454
71.5169567690532
71.5212997495178
71.6753844040505
71.7499057956632
71.6111600646904
71.4447911067363
71.5960232813353
72.1078195508111
72.3326880099232
72.3927514590972
72.3944677452833
72.2977044853919
72.4189289376062
72.6276163500377
72.6920349522461
72.7570000652155
72.683538425048
72.3223817332139
72.5268355451412
72.8502417522085
73.115246950703
73.4573673049255
73.5596799668633
73.5671117662039
73.6114812653281
73.6184020111127
73.5678058245427
73.6521139287277
73.7360819478355
73.7786010721097
73.8332221016623
73.8314725101574
73.7891615762217
73.816509750968
73.8315493680734
73.8089956462479
73.8023056654523
73.7769604972801
73.787427796875
73.8324065272178
73.8793620900551
73.6942667843436
73.5324097455826
73.6253856786536
73.9344846922392
74.136828847388
74.1829331735384
74.3589657756322
74.4047965320716
74.3888437569032
74.3365235530882
74.3225499534846
74.2788718466709
74.244384476737
74.2122626549846
74.1790691644555
74.0931524772489
74.0097124791095
73.8868146093657
73.7399062198128
73.5615982910976
73.3952701038824
73.1508859311961
72.8853905273494
72.5461404874128
72.2836946013672
72.017635443522
71.6721798011392
71.3877653826869
71.0275540665613
70.6748799483246
70.3177926787123
70.0732562110538
69.9271114040823
69.7654777024988
69.6494052528265
69.6295072563664
69.7445363071645
69.9237300985387
70.1417969666161
70.3962692046131
70.6505079039608
70.8264579578029
70.9116552069271
70.9221573854571
70.8453032016895
70.6753174947204
70.4410025660026
70.1500327024893
69.859488158261
69.5700860207433
69.2648571133569
68.9803194223895
68.7060449019919
68.4296324041967
68.1782161566682
67.9729690001604
67.7561014301815
67.538265421043
67.3797373881871
67.2256437798861
67.0308841114228
66.8193983461149
66.6123571705635
66.4116902004395
66.2061678394117
65.981494381986
65.773260249676
65.5802632306326
65.3747839597465
65.1883496903239
65.0062800029459
64.8354384077914
64.6681429904514
64.4872463630951
64.2930978912151
64.1903395540776
64.1053333314812
64.0245940699512
63.9573560926243
63.8914037493196
63.8170378573256
63.7678119077438
63.7575356805456
63.7491707395638
63.7457794943062
63.7383499080995
63.6924743951948
63.7004656402866
63.7426832134194
63.7579870095791
63.7791554719006
63.7802577738106
63.7767570886436
63.7570537940876
63.7412068362744
63.7198555873444
63.6848787717879
63.640305696289
63.6000154387621
63.5547202896259
63.529180717676
63.4909037690726
63.462162284199
63.4268533190615
63.3729576911578
63.3295482007884
63.2995892947332
63.2776423484534
63.2319137677257
63.181794438219
63.1391237520061
63.0971055623961
63.0391200443752
62.9732566563495
62.911578719567
62.8457186494386
62.7838957366718
62.7105864681759
62.6661897703244
62.6503952806255
62.6401913141551
62.6310278068413
62.6061310627536
62.5532575459238
62.4563201266057
62.320355084327
62.1550764312718
61.9828810184051
61.8561303452483
61.7962022158072
61.806798720244
61.870250326548
61.9621571150963
62.0713368068527
62.1604479704902
62.217006816067
62.251326230572
62.2633168104359
62.2757113323566
62.3300850203277
62.4109151444037
62.5036836004118
62.6219214402179
62.7663633783824
62.9324099833686
63.1037134786334
63.2902945090092
63.4969076552257
63.7039472952224
63.9003646465594
64.0924531363532
64.2847272444491
64.4848618794601
64.6907702597866
64.9038636184944
65.1349026558364
65.3754950492026
65.6026139764169
65.8337087144186
66.0447947416882
66.230759704738
66.3870040840459
66.4954139017204
66.5584715321439
66.5676678796435
66.5324844528387
66.5083949438093
66.4953837863776
66.4208721775076
66.2843655080881
66.0894188351213
65.7957625192432
65.4068701458873
64.968413521286
64.522403270843
64.1059444621539
63.7159907583236
63.3725843021195
63.1141335327684
62.938910301335
62.8703730720626
62.9016216254353
63.0342766037
63.2465550038547
63.4904004966147
63.7524389823886
64.0213794015404
64.2607380512089
64.4896590210663
64.7155050925643
64.913196053465
65.1138444319883
65.317421572694
65.5081173191212
65.695086687915
65.8679848190262
66.0296046808694
66.1626835373892
66.2983024975676
66.4306994544682
66.557810432805
66.6847783038689
66.8092873383506
66.9411634580309
67.0773440999952
67.2257870296979
67.3800851397834
67.5334888732152
67.6802114330106
67.8285711794422
67.9769391222992
68.1183553217252
68.2611499201107
68.3815043640218
68.5003794787092
68.6081106820657
68.7087062018897
68.8087055875986
68.9119314049382
69.0291340977613
69.1565415013967
69.3070682452645
69.4337926371429
69.5070055975621
69.5516917381024
69.544353258297
69.4783380834289
69.3667541265466
69.2054896011435
69.0067713505707
68.7845517058317
68.5724279229411
68.3837783061397
68.2157448706892
68.0795123007886
67.9896349353675
67.9112589286228
67.8660534959607
67.8511077639422
67.8410277845214
67.8199882569937
67.7921553598848
67.7736833405422
67.7633268724419
67.738830962565
67.7006565056554
67.6619721075535
67.6140734401173
67.5463086110934
67.4777951142511
67.4062417345028
67.3155407497149
67.193687839049
67.0529047547457
66.899862012056
66.7374429106181
66.5853800929588
66.455326970905
66.3461363317437
66.2715476916648
66.2473819560177
66.2647565281504
66.3211665665462
66.4101576119462
66.5291188698925
66.6822670013553
66.8441340071143
67.0146602785347
67.1866742339314
67.3431029258434
67.4847808148595
67.6246503682219
67.7523604464812
67.8812227886143
67.9962387043109
68.113554260855
68.2370485667339
68.3446694995705
68.4525718848578
68.5638791657874
68.6538413729305
68.7245395467396
68.7912708305808
68.8689714470536
68.9518926692486
69.0494186874895
69.1506804091759
69.2518951318104
69.3535009955744
69.4709470296139
69.5919433240788
69.6998657284986
69.8063822465166
69.9136157113379
70.0182880266341
70.1361484987348
70.235811274933
70.3161431190057
70.403511197674
70.4796732860595
70.5444071302417
70.6061539398805
70.6573901069527
70.7157076752637
70.7667909300982
70.8088928720545
70.8506529502101
70.8978763917793
70.9551228590711
71.019813526949
71.0963992311018
71.1612071931777
71.210679229259
71.2864807523068
71.3797175193863
71.4739840100877
71.5659964817237
71.652766418015
71.7781080709337
71.9193503543783
72.0622417512446
72.2226080280461
72.4069264389662
72.6006520730379
72.7806677548248
72.961704964713
73.1577739692831
73.3421551104635
73.5270076193231
73.7164005360812
73.9100545913597
74.1086568753144
74.3013001223445
74.4871641537203
74.6766784163235
74.8593585792795
75.0195422928971
75.1496934998162
75.2322349693794
75.2229004179944
75.082590959641
74.7479843588713
74.1415572153461
73.2656845354642
72.1604226299853
70.9560091155312
69.8336497212678
68.997981920253
68.5695628548415
68.4953163381179
68.6604654482882
68.9330843205119
69.241636755903
69.5367673896866
69.7972416837396
70.0465629193397
70.2862092585336
70.5184120245717
70.7543805708671
70.976319310055
71.163061692218
71.3199186533967
71.4742206615244
71.6092371178274
71.7276529142305
71.8796552382001
72.0360950872032
72.2040713616961
72.3933778228005
72.4893251546141
72.4176516671916
72.1407100248217
71.7173946424577
71.2572080343929
70.8733510099365
70.6810127994346
70.6811852289877
70.8267630575061
71.06715757443
71.3248927864686
71.5553561613565
71.6912612416394
71.6974134403182
71.566738881432
71.2998272575451
70.9345764865872
70.5695669060319
70.2631015807073
70.0840280937795
70.0932073066615
70.2111703450744
70.3938160409118
70.6284765000765
70.8891314146764
71.1458746385142
71.377422712596
71.5306272424053
71.4937443542766
71.2228559143286
70.699389231823
69.9975591754681
69.2611185917151
68.5867560239539
68.0222283630028
67.5473564272522
67.132713622687
66.7967819886745
66.5438387049308
66.368780930317
66.3164582345832
66.38549855715
66.5898987307602
66.9064825101572
67.2764766987199
67.6345426440165
67.9795770557971
68.3297387779756
68.6363589056634
68.8765744343596
69.128776799663
69.3665539790783
69.540087957537
69.697811023885
69.8437052944492
69.9825053436818
70.1022059918589
70.202584354006
70.301000326707
70.3761289326867
70.4473184469478
70.5302370910083
70.6028691102453
70.6770321160032
70.7379455015744
70.7980381588934
70.868849324531
70.9175514141479
70.968033359912
71.0507972232976
71.106666515045
71.1400099396626
71.1866696343425
71.2149558000848
71.2682388487417
71.344520998958
71.382950522227
71.3953807181104
71.4305363396586
71.4718875781291
71.5177157652973
71.5755220472604
71.6312277139296
71.6939039372541
71.7250275162305
71.7456450443089
71.8062993616377
71.8580914559963
71.9089900970872
71.9660687271227
72.0156790669306
72.0942771849535
72.1471012280269
72.1817587788077
72.2492638053649
72.2926166954035
72.3265075365896
72.3636598784779
72.3993389864105
72.4572189598919
72.5348907124285
72.5632403359798
72.6097970052544
72.6837934131691
72.745437661144
72.7933072461959
72.8230224523953
72.8570221899868
72.8828728657691
72.9010956050841
72.9232500095628
72.895122315061
72.8545922307181
72.8428127819973
72.8249659326341
72.7912021489063
72.7698307943737
72.7263580257888
72.6659888465416
72.6390088628724
72.7008037245391
72.7676385528949
72.8416423251418
72.8641512603096
72.7799662759721
72.5824452852197
72.4357064614712
72.4018838910991
72.4490318936098
72.5323269747477
72.6201494280919
72.5840116104723
72.4452305150585
72.2475332980244
72.0273106141704
71.7445443597741
71.3515061706281
70.8934446044279
70.3755633100179
69.798475820054
69.2756192851116
68.8276290080183
68.4830642965432
68.2627876245154
68.2482401783993
68.4008378699678
68.6834124760813
69.0308672626413
69.3827231782723
69.7093154602485
70.0173794942579
70.3155199294053
70.5915566750623
70.7870001947373
70.9514172883166
71.109949387107
71.2495525062568
71.321098822556
71.3761165528614
71.4388405946749
71.4933022292525
71.5039056547605
71.4978832790165
71.4665449310757
71.4472673677157
71.4113812095709
71.4047994134583
71.4922092609026
71.5822794574082
71.6563050803681
71.7730248623589
71.8849085208128
71.9831191470333
72.1110851486
72.2283040668729
72.2957426236148
72.3809495636068
72.5132195047372
72.5812059570921
72.5538198564847
72.5700677867336
72.6259970150961
72.6380249429448
72.6476608963114
72.7064709813674
72.6845200412781
72.6159582904758
72.4910671634588
72.3303190993198
72.1808915060027
72.0600387175798
72.0115251238249
72.0465482540747
72.1820030410113
72.4007239912947
72.5621708607676
72.5857870030523
72.5142618375714
72.4145063514384
72.2462621247699
72.0166002847638
71.6846871373759
71.2953721450549
70.8494279020522
70.3413153584956
69.8007910020052
69.2821397213484
68.6757131294779
67.9516912003291
67.1726287155914
66.2956923780422
65.3481035782147
64.4673523464684
63.5457654181577
62.5988702250519
61.7856601764775
61.1477192901205
60.5723498366793
60.0251193837833
59.6459819133121
59.4633501690111
59.3334165732663
59.2918448962713
59.3584778998738
59.5153955707526
59.5600955893201
59.5519454491978
59.6522901221208
59.6439623626233
59.4641948121996
59.3555252896498
59.3178164169094
59.3393443567326
59.3946716942585
59.534369079585
59.7278077769641
59.8532314350987
59.9873293734681
60.1688346520495
60.325730692832
60.4276910944537
60.4296420158002
60.4069841353627
60.4113016147965
60.4055202031557
60.3281871661124
60.3481798992703
60.2608864875555
60.08657565857
59.9896286693413
59.9279548557685
59.8590269801601
59.8334181797347
59.8765977767779
59.9133671220014
59.8979065046738
59.9318108565183
59.9917951800905
60.1405879163694
60.3926933625851
60.7063593448055
61.1183585300802
61.5607287717487
61.9517142815453
62.327936875568
62.8174914481657
63.294742908033
63.5720905323581
63.8336577055243
64.0150138319693
64.1657712484616
64.302469079546
64.3365612252151
64.3190238586721
64.2282223702262
64.0110018354704
63.8306373150472
63.6264409145044
63.353964096168
63.1095842728249
62.8504026989513
62.6145108819472
62.4430102637694
62.2300950702511
62.0417022093986
61.8441536580014
61.7247642483992
61.5414667598108
61.3311581138746
61.1600944775761
61.0231126470975
60.8523851501552
60.7168208065086
60.5846247046063
60.3513553974661
60.1696438202887
60.2046421529579
60.2250712842539
60.1549626347856
59.9909003499144
59.9836059649736
60.1239420679049
60.2118896134101
60.3176987372935
60.4541168538658
60.4604385368415
60.2625912329139
59.7455843703544
59.2595310837032
58.8192242878765
58.5249736908329
58.3758927704014
58.3194678040464
58.4441628444103
58.5978298978599
58.8037624601834
58.96057379998
58.9490977007962
58.9852735938023
59.2588729124381
59.660764797937
59.9172596881279
60.3399382927146
60.722157278589
61.0130601455426
61.2152758957388
61.4621518185284
61.7736781409365
62.0822710318312
62.3216779793739
62.56326051898
62.7355720855449
62.769473551774
62.8286306983972
62.9517676749908
63.0273607962941
63.1994027065959
63.1055795808922
62.667424620812
62.636323191985
62.9644629121777
62.8631616515519
62.7478442797138
62.7307906250241
62.5982183382849
62.5305655492326
62.5652812882485
62.6749885074088
62.8758122668746
62.9188967347115
62.8798516578539
62.9311397777464
62.9324165985322
62.618027048337
62.2935095728426
62.2785569461126
62.4426678042364
62.2160041680494
62.2537473655609
62.5124020804904
62.8747015052361
63.0231685284403
63.1250739439284
62.9068425886096
62.4992045345466
62.6736873842976
63.30361385557
63.7212848876294
63.8383391372694
63.6251073288251
63.4935665075587
63.4787443225078
63.383975747247
63.288694277886
62.9998347645903
