3596
4000.36533379555
650.420452594757
1
128
2
93.858857129839
93.7880753691354
93.7851366837446
93.8032088151795
93.8018993912255
93.8605141417841
93.901276389976
93.8451047294432
93.8262010224096
93.8290823220908
93.7892427295546
93.8024515900349
93.8353981101151
93.8578342639302
93.8376250964031
93.8620916841235
93.8549897199391
93.8307570269044
93.8384108155978
93.8355067385336
93.7942201049686
93.7770440809167
93.8072287193105
93.8146980013688
93.7385799201006
93.7070109614379
93.7174084245066
93.7472458054856
93.8069933106627
93.8165179286995
93.7583359216115
93.8168106798728
93.8749955596195
93.8343518592801
93.774523546871
93.7740324219479
93.8026778019532
93.7786947091797
93.7080863447636
93.7199998142348
93.7296132934599
93.7659544720204
93.7842122997841
93.767244456253
93.753772482613
93.7947761617925
93.805595091954
93.7707618502119
93.7599964190753
93.7756497833016
93.6256063192653
93.5432508485487
93.5872600075381
93.5121690691009
93.5613001757985
93.7332410341976
93.8057648229128
93.7622012147366
93.5144258297834
93.4530159233329
93.6654225521748
93.8050536805203
93.8655030246826
93.8151179452434
93.7666583191739
93.8197089443572
93.8883592543357
93.8716556842034
93.8071965007369
93.6152216868506
93.4938312029151
93.5650452218854
93.5112277304822
93.5255784013179
93.6701401650464
93.8135583041921
93.8386980826969
93.6630530874856
93.53345708689
93.5553570657777
93.6393315096803
93.7995697254147
93.7171913874789
93.5304396335373
93.6508246550299
93.6796478103657
93.3821996160156
93.4094969851482
93.6614874688081
93.8120080534998
93.8591120496892
93.845942007421
93.8480705922912
93.9021563373819
93.8902078545113
93.9026079943003
93.9335638540352
93.7756188041237
93.4750531312509
93.2400855031395
93.016682750035
93.1039531826871
92.927538736288
93.0946878260828
93.3484760820649
93.0976072388717
93.2602056427394
93.581820707355
93.7781277563204
93.8806694180417
93.8410696072941
93.8222646717222
93.9110194843027
93.637322830793
93.3368872331905
93.5759148585113
93.774529318348
93.9062615158075
94.0472887054012
93.6590735555278
93.2092312380559
93.4189041873051
93.4690556500794
93.5828257221492
93.6492443216357
93.253500985055
93.1178134949138
93.5033918176921
93.723393162591
93.8358438837239
93.9408433871904
93.8352885884381
93.428598448215
93.4608658788598
93.6578303662896
93.6504804021204
93.2329007746974
92.7097623993088
93.0209633032165
93.5979045302323
93.8702508458725
93.6634894605819
93.2144987208703
93.4626983377719
93.7880658630064
93.6100276264825
93.5053017369046
93.7530998077025
93.8753540124737
93.8946554006546
93.6838943578888
93.7013730532492
93.7854470267938
93.1403848225708
92.3637914064211
92.3163761824726
92.4628076506006
93.208015636835
93.6255248054503
93.7807763863841
93.9997285463369
94.1000137849832
94.1533337539407
94.2282297335834
93.9939685851027
93.5433109136189
93.6545916884681
93.7296649873599
93.3339512732165
93.1957671058916
93.1834530079442
92.8116096960877
92.9858558564167
93.4117988307863
93.2410381051939
93.4174403738471
93.8626699491368
93.8084894965088
93.4742646768906
93.6848432293866
93.9594375653601
94.0525140788826
93.9337808560968
93.6928863219278
93.6992131372449
93.8622275564117
93.9108194651098
93.963019327326
93.5481118164858
92.930061335399
92.8046634241
93.1293092533264
93.484926502366
93.7463500781901
93.3457939998981
93.04028440767
93.463103160385
93.7716522359315
93.9188450439135
94.0629137951996
94.0889402835822
94.0595299691531
94.0525235797358
93.9812463102384
93.4224959290119
93.1610534499918
93.4565866194837
93.688440522484
93.6982096471299
93.4511379212543
92.9179194765084
92.7683855018065
93.2428485197004
93.6526252738763
93.8115494132875
93.688937194882
93.5225618968281
93.7276135632931
93.9103182813648
93.9653920127486
94.0126990247314
94.0735329340734
94.0751839554578
94.0181298940344
93.9469569226402
93.9169385650768
93.9468516807638
93.8819339608044
93.6160444873733
93.5742822463004
93.6994091533042
93.7203482148743
93.7269551697398
93.5845036292928
93.2580510189652
93.3574990833582
93.5974002788219
93.7271200987995
93.8164649005944
93.873775009631
93.8535126922516
93.8207433815909
93.765245090862
93.6269175539287
93.2211255361819
93.1800258079724
93.5008071876076
93.6838046271363
93.6445650497021
93.5063919298424
93.6441446069399
93.7523820263383
93.7591458471733
93.8162340074518
93.737603742868
93.3271037558104
93.2422510147543
93.4386765033435
93.3733833342325
93.3423785708329
93.5606337066705
93.6890106489596
93.4676111143472
92.8299525682665
92.6020069366651
92.8040783493214
92.5419813684482
92.7411578097469
93.2388308983226
93.5355627244309
93.6876508705261
92.7718990236609
92.2971315331269
93.1063044265275
93.730949491248
93.7978321117036
93.9756302998285
94.0570540385552
93.9193391864423
93.7822151194604
93.3152056906744
92.9597447306466
92.7717446594981
93.146578890359
93.3945096128275
93.2488623810954
93.6078472555453
93.9842227270956
94.178706768989
94.1928012101284
93.9779317228611
93.6994575921483
93.6172762260105
93.7168160388376
93.8255635189567
93.5550849596125
93.5837934090335
93.927437373
93.8958834530833
93.6595436342649
93.7156629500594
93.8544277487602
93.8866867474095
93.8272921798948
93.7702978695161
93.58602354866
93.0167351294158
92.867626571296
93.1096669864796
93.2061989585743
93.3828432306655
93.7051212834313
93.8222547011996
93.8852926925384
93.9842794769898
94.0495131573713
93.9874730253704
93.7289086964451
93.5883480278801
93.7703218093736
93.8613139379749
93.9431602994334
93.9081433913667
93.8051185797999
93.7897035656353
93.8376989232783
93.7934714202603
93.7285761057391
93.4616214277769
93.101735890594
93.1461659379739
92.9962760366926
92.648619962456
93.1858420720247
93.6629354402468
93.8244510713951
93.9384014925987
94.0437527779848
94.0706774202038
94.0877650357272
93.9689321384682
93.7646283021366
93.626632826588
93.6312532373808
93.3453698099223
92.5687699524625
92.0909843723947
92.6943690997752
93.436564810303
93.7942414410674
93.6988837203247
93.2813838341961
93.1371490786525
93.2171443967765
93.5958612740748
93.9392175471269
94.0762658494011
94.2504881943406
94.3049664190941
94.2455124379492
94.1867698291698
94.1589290224526
94.0287366284155
94.0247792144535
94.0109194574346
93.7848068303839
93.3591784679804
93.3056379891657
93.5153633131051
93.6608786185097
93.7279786333873
93.4972375643964
92.8583588860721
92.415742304226
92.2744532506857
92.2819761599939
92.4443149744064
93.0499451809069
93.6558870152987
93.9375402029871
94.0953229228305
94.0259444086959
93.9471330555069
94.0115170642143
94.030108862599
94.0296757364523
93.965079872188
93.9518952189
93.9723950694087
93.9541140524164
93.7048316299442
93.507281348766
93.6687564355297
93.6720491477426
93.3951433393592
92.6371143717656
92.3609595916547
92.8740729785701
93.2925558446771
93.5189149586576
93.7921712556451
93.883954575178
93.9972525478394
93.9737458811345
93.69347083396
93.3497955744839
93.0435335322612
93.1309941681824
93.2900433021264
93.4935546286497
93.6066725359206
93.5276053372048
93.5581300294938
93.2974117149041
93.4077304335504
93.7560346688363
93.5912830716925
93.3671604927412
93.4398458135845
93.3759087792097
93.4862586522794
93.7685715600353
93.8371150394161
93.8742850352797
93.8264655638998
93.7077910254388
93.6148340759537
93.687689544352
93.716936265355
93.7631564485027
93.7712375168162
93.601709590529
93.4567423981963
93.4194300937022
93.4377078005553
93.6277122333479
93.8649373346148
93.7943869770728
93.6559195535356
93.2558557232661
92.9512799039312
92.9118981585399
93.1797524345533
93.5021167718257
93.6640824362088
93.80192252095
93.8736778727785
93.886039444324
93.7776629496042
93.7570599363452
93.9128182752471
93.9531714262594
93.8552438233907
93.80104191291
93.7679939748242
93.7652834132444
93.7499634783648
93.6904636413545
93.6547990478061
93.6319396909856
93.4941563038192
93.0932980565142
92.8035565252927
92.7856367014345
93.0012238962022
93.3344013212138
93.4475146413529
93.5735571044362
93.7399517180897
93.8805394111005
93.8570146389816
93.8504672311829
93.8707819048034
93.85588897782
93.7494012313749
93.7594012694732
93.8015672283793
93.6878186059183
93.5948750432207
93.5697045192033
93.6672335841905
93.6785051552233
93.5749196100329
93.4602054084352
93.3166021519609
93.319665103579
93.336783313805
93.437527179845
93.6266937427947
93.7263355515322
93.6788536214202
93.6551231264611
93.6877393961261
93.6890849014275
93.6787484149864
93.6576940536019
93.6207241788106
93.6962905837747
93.8253593792001
93.7827639609894
93.6755984799001
93.59739388438
93.5341159695167
93.447313335367
93.3532597117472
93.3867073786067
93.4500995891263
93.5440812998758
93.5252097390461
93.4095040240843
93.4110253635464
93.57295204955
93.701660773172
93.6913088801685
93.6557998160165
93.6873285287343
93.6764607735554
93.6596565869832
93.6522199778428
93.634674365365
93.5856380384281
93.596005067664
93.5989469737022
93.5254811438389
93.5135732552402
93.5699732890867
93.5974023370406
93.6100280320161
93.6387554421132
93.5636377793715
93.4863099960444
93.3866579595452
93.3827819301612
93.4836041388084
93.5003429141821
93.554548509336
93.6368736907985
93.5371912450085
93.4745664961229
93.5810124268985
93.6946536565076
93.7091200424151
93.7107392953856
93.6661519967779
93.620040441526
93.5729216128845
93.461932695266
93.3970246631007
93.4568244186257
93.48128314747
93.528302734215
93.6320712334443
93.6955577148896
93.6005695846185
93.4648130586907
93.5144545336338
93.5174083854901
93.5361359194405
93.5927544173128
93.5932715491574
93.5336980424716
93.5818307324717
93.683149062977
93.6795835589079
93.5291192362224
93.4255279076902
93.433848532441
93.5439230755022
93.5870169824937
93.5575535707621
93.4987088341396
93.527678562935
93.5760144798813
93.5602219461967
93.5808554111247
93.6406641780654
93.5781349513497
93.4796575094417
93.3509905531798
93.3392829082919
93.4467010735339
93.473540732165
93.5312863067844
93.5575976832755
93.5433952502975
93.5933840612333
93.565882213131
93.5024939990035
93.4922870441487
93.4883259571477
93.3942567539865
93.3669340979744
93.4123210877625
93.4963558096019
93.4946722020535
93.4308234381978
93.3704772678983
93.3752179854507
93.4344943221316
93.4395921230933
93.5110579565761
93.5091581502824
93.4827824062856
93.4409161891715
93.4367487299765
93.472384069743
93.5156219092514
93.5042765691808
93.4325527818303
93.4883236608549
93.5730174297062
93.5236890846824
93.4639575187796
93.4589430882473
93.3760429359532
93.3525351914388
93.4411773109163
93.455801893533
93.3956222309287
93.3611902272523
93.4695363581206
93.5837421960288
93.5502770150401
93.4178026763052
93.4247704212328
93.4931075077453
93.4555317633198
93.4386572940165
93.4650062623859
93.4391773029458
93.4342952234218
93.4460091920675
93.468647771626
93.5442577506176
93.5220941074133
93.4364433258487
93.4091618277851
93.3988578914223
93.4200483053062
93.4533037596498
93.4427764080992
93.4111334520545
93.3858766019978
93.3330112717908
93.4097324947394
93.4821622995076
93.4869921005846
93.539991133256
93.4207260728133
93.2832584763174
93.2952225308067
93.3819013002349
93.4442014120514
93.4669799350385
93.4755540572788
93.3836981502419
93.3777038627681
93.4782823365487
93.4835329347957
93.4474105590288
93.4489808574934
93.4622343009892
93.4983869194471
93.4834296925069
93.3940214921093
93.4191799219764
93.4720609787912
93.4560024156249
93.4457672984741
93.4561159394526
93.3987411706248
93.3599480410103
93.3790682822179
93.3611843794425
93.3749573291638
93.3894852036649
93.4030697787493
93.388188176483
93.4117035309631
93.4412642316405
93.4103097133766
93.3549478289725
93.3473602031137
93.3847228788202
93.4197940696392
93.413101010503
93.42736247834
93.4206109469666
93.3896387625211
93.3938331824018
93.4319867290313
93.4161669494607
93.3891839525175
93.3668620552019
93.4039627722124
93.3955177499291
93.3558454374687
93.3834574240682
93.4204664986332
93.4396398864095
93.3912201027528
93.3723572331023
93.4024860357066
93.3355074998951
93.3153639397647
93.4130170659186
93.4130176396705
93.3478170210607
93.3214341408986
93.326957082384
93.3521508803289
93.3289069532281
93.3104795723599
93.3391058468627
93.3735492072173
93.3796451985093
93.3591828472455
93.3798367727714
93.392723608484
93.3434234704455
93.359307676354
93.4574559215243
93.4777643160175
93.3871799261834
93.3178652316304
93.3380636124086
93.3488332743786
93.3115968598235
93.3403470589175
93.3529015560884
93.3230916433449
93.3603814993061
93.3848350790955
93.292117134696
93.2537717421109
93.266858865422
93.2329747274106
93.221394813121
93.2496298265601
93.2645322204586
93.2389807764701
93.2659817233727
93.3227518522378
93.2996539486919
93.2707040750304
93.316449956667
93.3640783105646
93.3765888309933
93.3327896712076
93.3227818996097
93.3225890889641
93.2970793180459
93.2999664907481
93.3305080042533
93.3175170544638
93.255874686322
93.2861703581324
93.3440344710233
93.3418711737971
93.3591617608353
93.3095388582572
93.288242866579
93.3618906961888
93.40395933717
93.3716119787335
93.3119443959285
93.3334172311257
93.3303586009185
93.2996435763171
93.3213032791222
93.3259941051352
93.29252198463
93.2716451129587
93.2177380180302
93.2079800218114
93.2449995454528
93.2465894785886
93.253692809173
93.2911787496329
93.36183905472
93.3537778143469
93.2823798014079
93.246844734514
93.315524664578
93.4038590234643
93.303844470253
93.2199842552891
93.2564510188226
93.3165190421395
93.3331801921848
93.3582080404464
93.351968538944
93.2860258598064
93.244193933659
93.2339574380129
93.2539630200516
93.2433734346745
93.2225816798364
93.2391479276466
93.2331525674081
93.2640574830159
93.2621430083841
93.2388129035348
93.2445369627082
93.2719058583245
93.2550178512411
93.2012039736693
93.1520660489361
93.1448323956793
93.1741444779491
93.2266128161433
93.2187334946977
93.2291659694445
93.2369396364534
93.2517974553063
93.2444220089078
93.1720941580433
93.1189112155894
93.1417312583698
93.1691474509557
93.2098217078272
93.2531581426977
93.2648142337168
93.262686984633
93.2323888016054
93.1893141180731
93.2192887407007
93.2318781519514
93.1889641968766
93.1741385834389
93.1441725359615
93.1049693247536
93.1357978479159
93.1698525634988
93.1753267320979
93.1616178068949
93.2027992703183
93.1903603039623
93.1458531891866
93.1777818761239
93.196552631239
93.1482960471125
93.1190440289596
93.1426578495198
93.1822883380184
93.190509806721
93.1939429167948
93.1899454437136
93.2081933440724
93.1904237582543
93.1399956880268
93.1368938156224
93.1457544414083
93.1326220222219
93.1248172008791
93.1617504848878
93.1868419848888
93.154980498107
93.103353455429
93.1035335368465
93.1515727029643
93.1456561652585
93.1163355868008
93.1124430865687
93.1602116112185
93.1879699966629
93.2207673575384
93.2149549794121
93.1993911703201
93.2243838576169
93.212324388392
93.1440290777638
93.0863025345972
93.0945397678541
93.1174122710872
93.1243242701218
93.1212697159853
93.1300207059478
93.1659496784888
93.1620514438368
93.1616978058171
93.1693825331321
93.1822453137334
93.1863152753823
93.1630016266445
93.1621294885981
93.1600950161832
93.1142985453832
93.0845450919765
93.0569385431904
93.1067080546738
93.1820116966612
93.2044606633807
93.201744670183
93.1959273830447
93.1914562657326
93.1904021757904
93.1633077813589
93.1428676083518
93.1679310401009
93.183175281359
93.1697553988995
93.1460918791631
93.1198937064037
93.1355148019513
93.1061268166111
93.1027578459732
93.1657579257676
93.2065098151195
93.171251050051
93.144597861295
93.1829746239247
93.2269438106832
93.2098874317361
93.1404640633877
93.1042848985685
93.0838299127699
93.0756997086552
93.1052255129004
93.1530927109858
93.1686978269628
93.1426836551242
93.1215276600011
93.1433725581059
93.1224461284345
93.074129663084
93.0936590463321
93.117906709385
93.0892569217904
93.0519187921429
93.0959564425882
93.113847915148
93.111918948968
93.1493165888466
93.1441970329064
93.1053512439589
93.1236716984649
93.1229938995508
93.1023501271867
93.0850003108108
93.1328312981755
93.1278911103887
93.0959356362615
93.0590256632423
93.0488378283621
93.0788968107931
93.0974213912643
93.1012969289916
93.1041871012143
93.1243593970505
93.0924444374151
93.0608732459759
93.0611645706323
93.0930516700097
93.137661502491
93.1624336708387
93.174922524218
93.1189322934559
93.0941918392986
93.1048172252795
93.1033622202028
93.0771498243578
93.0766633174946
93.1147472749587
93.1480973081226
93.1453435753251
93.1415600438383
93.1271887702727
93.0849597031188
93.0660015344016
93.0638188648021
93.0836816690317
93.1356919718364
93.1460648653724
93.1234486811218
93.1364757866256
93.1736390038061
93.1593597352233
93.1503192194656
93.1439483505608
93.1038739222493
93.0832923987482
93.0879332057002
93.0865941975605
93.1216129338767
93.1300166421461
93.1895082458714
93.2062131372163
93.1381456869069
93.1096149594328
93.138574912509
93.1553926927365
93.1201442279314
93.1160625725382
93.1072704446207
93.1062569514822
93.1282450779454
93.1250634836815
93.1010926969526
93.1202958530803
93.1444496110772
93.1090404028388
93.085374910656
93.0883997318605
93.105555668803
93.1424557565636
93.1428559888229
93.1166935302968
93.1129595614269
93.1111952537874
93.0946498825204
93.0762969332541
93.1162499110419
93.1645366141771
93.1267520502445
93.1103505230628
93.1558053701544
93.1769585182222
93.1398915988933
93.0674115137665
93.0714923958258
93.1536560704267
93.1980492187715
93.1692393474837
93.1641730368098
93.1731957317213
93.1696182194686
93.1268616097965
93.1378381934881
93.1487722054413
93.1265584238387
93.1015183671315
93.0921493215151
93.061016353426
93.0436701360375
93.0706098776197
93.1044040082684
93.1054594355689
93.0814861444766
93.1041568779317
93.1283263984048
93.120697440109
93.1136136971962
93.1044776933694
93.1036990800529
93.0986221286555
93.0705980618856
93.0792264621338
93.1130408712989
93.0860126366149
93.0648672759193
93.0502967529838
93.0628147106908
93.0939114494215
93.0807454452985
93.0608744921199
93.0889562768629
93.0670555968158
93.0493031298551
93.0838765331319
93.1086324546618
93.0840605683887
93.0664738449076
93.0853415718995
93.089121821594
93.0921233317852
93.0619800050803
93.0074680840842
93.0004596821184
93.0202693194349
93.0578699779575
93.0709360305536
93.0433844990383
93.0533731327562
93.1123454576087
93.066959428918
93.0180842624931
93.0023410538582
93.0175102413734
93.0719704804801
93.097100949665
93.0911986982502
93.1027920332455
93.0847473861467
93.0448236036232
93.0543391723811
93.0523477756027
93.0181157796836
93.0225302120429
93.037626685442
93.066023911146
93.0896274492786
93.095960676926
93.0315036180474
92.9587385057301
92.9750875161654
93.0732926795723
93.1072736010826
93.0769250414758
93.0460447782419
93.0605924091341
93.0635532685252
93.0210839860522
93.0211648837208
93.046158916149
92.9966080035193
92.9649036860795
93.0080189613272
93.0235483180213
93.0118509927425
93.0280995957833
93.0336503251594
93.0366855579762
93.0388998214465
93.0347867759757
93.045976061908
93.060788061109
93.044909168204
93.0153451297784
92.9933189955951
92.9783039543512
93.0132416260688
93.0801452628488
93.0663020195351
92.9840469928654
92.9726469723573
92.9887970436792
93.0051557747047
93.0374830091765
93.0093897471061
92.9821428970501
92.9980961398616
93.0297444083732
93.0199921186751
92.9981264666081
92.9908256315185
92.9865373457199
92.9774784994441
93.0002765084097
93.0220307337922
93.0086406492306
92.9700375557022
92.9332163419553
92.9182344893909
92.916487493484
92.9202541541217
92.9666458389594
92.9785271158582
92.9588962188025
92.9669551067983
92.967347829223
92.9427827443527
92.9476332352454
92.9643917980036
92.9785618373859
92.9738103347929
92.9403381947739
92.9233153272466
92.9228730860006
92.9216924420593
92.9330417166482
92.9513632699252
92.978232264625
92.9851763305668
93.0026197868861
92.9980221108992
93.0042548232155
93.0221229525312
93.0123923761852
92.9991821986676
93.0139453286814
93.0170071067608
93.0061675879106
92.9922927858944
92.9999171519056
93.0073856276996
93.0173311143004
93.0058585346586
92.991616956051
92.9871850260832
93.0128236049946
93.0271089907734
92.9988769011413
92.9843011643044
93.0054328825066
93.0245116425591
93.0212110477331
92.9944881202912
92.9659697030912
92.9539108153549
93.0007918418048
93.0081333455252
92.9624179473784
92.9561358157811
92.9540056327761
92.9401056866978
92.9955291316471
93.0398015761498
93.0378921766164
93.0138105993285
92.9761078894517
92.9638608300778
92.9810709681521
92.9774508690742
92.9783157140933
92.9685402925135
92.9680846331231
92.9505560492072
92.9512432539382
92.96945331634
92.9628439622782
92.9618480442484
92.9910687381758
93.0094990180867
93.0232120584344
93.0348180107551
93.0366003868447
92.9819309909979
92.911332385578
92.9049990781732
92.9362978203693
92.9493574681066
92.9570044441207
92.9470939517637
92.9200880960531
92.9160416647798
92.9320880286818
92.9179801362961
92.9083448716706
92.9134715418022
92.9301425367311
92.9334374769351
92.939601344863
92.9640071836626
92.9722167049911
92.9703660976292
92.9731634184106
92.944798024848
92.9288584969538
92.9627346034922
92.9955742467607
92.994139004837
92.9946552896231
92.964469494842
92.9526996036527
92.9596151393023
92.9606359660846
92.963004281919
92.9615534969816
92.9499868042184
92.960690803563
92.9598667161528
92.9601959890074
92.9638948681253
92.9602900914331
92.9600259579172
92.953716309981
92.9586084404224
92.9839804339868
92.9650437739512
92.9471658695094
92.9540360207226
92.9597407704822
92.9770049200653
92.9950913562364
92.9889226964797
93.0006352280656
92.9964872247907
92.9659769489659
92.9422134908575
92.939978922991
92.9406094190581
92.9316427184996
92.9240138922991
92.9651375699015
92.9755644996556
92.9373853482283
92.9452420432301
93.0017058070512
92.9961308944227
92.9542725530397
92.9884043983817
93.02269959851
92.9660379771826
92.9462869638842
92.9712389727382
92.9746214436404
92.9645999981406
92.9534412848999
92.9459461267943
92.953374452413
92.9760345014705
92.9615400839866
92.9558068367994
92.9937116605219
92.9942117686148
92.9637105604643
92.9450166731855
92.9450765756822
92.9328443374092
92.9551349729644
92.986700828291
92.9988603534302
93.0062106331248
93.0201573368606
92.978004806797
92.928484842769
92.9229268683854
92.9285827000651
92.9302091769725
92.9494380526981
92.9950272298988
93.0178297309905
93.0017893393748
92.9923552758715
92.9872215384505
92.9975963965591
92.9772859655711
92.9597373651505
92.9948257987297
93.0348506975322
93.0075019025064
92.9791130714891
92.9984248354361
93.0042719204258
92.9795625390201
92.9712655853384
92.9645834055805
92.9657340161124
92.9903485489889
92.9926466055263
92.9721510859068
92.9934750749377
92.9789069280612
92.9501587909473
92.9433567916228
92.9372427922131
92.944452208228
92.9466549927377
92.9531622340091
92.9771105175099
92.9802561759329
92.9650839107064
92.961262383458
92.9791817843677
92.9756201169872
92.9734314572229
92.9701772423397
92.9715989016087
92.9773294631483
92.9729947414525
92.9686686464727
92.9768983084748
92.9923620752866
93.0018121913507
92.9770518627925
92.9673185563992
92.9578148642646
92.9585117980029
92.9617918163326
92.9578870081965
92.9588498947878
92.9522899047236
92.9434063980182
92.9613638697714
92.9638964619333
92.9707036767631
92.9953074407536
92.977622413178
92.9515197939312
92.9440345702601
92.9502601132714
92.9818279047002
92.9968301621843
92.9876589775641
93.0043044084372
93.0032222686854
92.9698734931475
92.961574568283
92.9479891024531
92.9675105820123
92.9789155797645
92.9610932874413
92.9454618723326
92.9275948521817
92.9237298254948
92.9302538250279
92.9368478196741
92.9488757759907
92.9413689166509
92.9397445374347
92.9517678867846
92.9512168653964
92.9532000650125
92.9532027577254
92.9503912264973
92.9601431273358
92.9590865817461
92.964784091167
92.9697062645015
92.9503509282024
92.9384236825043
92.9446890099741
92.9336304664625
92.9291188737764
92.9385952574713
92.9284112683143
92.9216966281005
92.9299089891002
92.9101154459272
92.9292120622645
92.9637349519334
92.961593310258
92.9449089506507
92.9373492584681
92.9300250504702
92.9193237435665
92.902908850465
92.8894278117563
92.8979309572041
92.9361359581797
92.9494882029543
92.9487953201919
92.9331407789231
92.9205608273208
92.9359826884053
92.9457672476916
92.9246283447831
92.9067738771433
92.9005288846889
92.8953057808999
92.8835601366081
92.8996740544433
92.8952992346488
92.8740480768394
92.8727388840975
92.857799717238
92.8421465409736
92.818369040774
92.8030192762553
92.8030393437008
92.8170440763743
92.8502618483038
92.8397298407731
92.8021769494126
92.7848587612596
92.7715932868746
92.7588749531536
92.754576245035
92.7286921559231
92.7268480707865
92.7404868758538
92.7457941283754
92.7329859658263
92.7630425507878
92.7925475708844
92.7826505971016
92.7873185666273
92.8034305172057
92.7849683316166
92.7586403053442
92.7682376557829
92.7935629840826
92.7966807312057
92.7966269018731
92.8110144419901
92.8032673225342
92.7960987718238
92.8264934508532
92.8400540503444
92.8405272384864
92.8510309041116
92.8465587712447
92.8258218836475
92.7783660204944
92.7906720363398
92.8546477148943
92.8864717715481
92.9094241735108
92.90485466864
92.8714326395393
92.8335187827457
92.8389818458847
92.86493368374
92.8824350865259
92.8661188831204
92.86720889296
92.9092752902009
92.9186706324331
92.9229105000659
92.9656181168574
92.97944136732
92.9603572341072
92.9341517680193
92.9038962739719
92.8815998922641
92.891710249394
92.8995732603589
92.9030571986189
92.9133323336622
92.9444852872467
92.9389488928279
92.9702083874914
93.0014203121948
92.9567384089326
92.9391157738864
92.9873538074931
93.0151819497213
92.994707041415
92.9499884908315
92.9463856666282
92.997079054889
93.0799109994877
93.0536728467387
93.0178792115643
93.0099868684011
93.0048277259012
92.9907289097027
92.9947017851427
93.0311034748201
93.0364190185358
93.013500503798
92.9751104991448
92.9742207626758
93.0208983376071
93.0363960063949
93.0214993446939
92.9926045554718
93.0268400817827
93.0612626556323
93.0835117891843
93.107001640718
93.1175537050166
93.1306079792396
93.1363137978878
93.1016639205093
93.0952869766526
93.0947246329587
93.0580734583903
93.0843245646576
93.1695904200372
93.1470620612982
93.0984182274446
93.094410667937
93.128517668983
93.1026000203423
93.0643083382844
93.0938171964807
93.1234982466053
93.0481141299844
93.0559087659943
93.1155237453132
93.0940886784941
92.9959420209453
92.9713592255652
93.0874141953657
93.167230116998
93.1286690150474
93.074893432779
93.0651543126678
93.0995618639879
93.0821198945139
93.1012988805791
93.1304880981257
93.1478451705444
93.1191087527823
93.0834378594826
93.1259418811188
93.1556404482284
93.1366003539687
93.1316284856758
93.1564664502562
93.1722010845763
93.1717987555717
93.1897549149897
93.1304536944435
93.0650590273288
93.0894498481197
93.110532271105
93.1046945094632
93.0939309929159
93.1192760043653
93.1376600615872
93.1618473767661
93.1663099253101
93.1497939709613
93.2134442569677
93.1739482264401
93.1089081513904
93.1358470727846
93.1625313551508
93.1661831870484
93.1224048209567
93.0976273472126
93.1753707929578
93.1704169295127
93.1383780723358
93.1572064837706
93.1171613729138
93.1106689438205
93.1749211734482
93.1634335172162
93.1577582105668
93.1835716933149
93.174619255262
93.1479809060683
93.1426284154286
93.033884953666
92.9919277844688
93.0868062380978
93.1729108882799
93.1620325812303
93.1720242955814
93.2069226922513
93.1900873222312
93.1703569607465
93.1901856020233
93.1331061950282
93.0913202491981
93.1220479391494
93.1272811668682
93.1261065143949
93.1474846237461
93.1036545948475
93.0724975073877
93.1059528508214
93.114522395078
93.0841113945399
93.0509504760694
93.0551018604219
93.1124612404047
93.1228053734186
93.1333663059942
93.109992726329
93.1106468204654
93.0888913385217
93.0587991431244
93.03487760447
93.0708867990529
93.096741976635
93.0703103159886
93.1037095525648
93.1238902752656
93.073702302678
93.1004542542817
93.0770478058793
93.0358269054512
93.068196988803
93.1265013060709
93.1307091572827
93.1127384178757
93.0926853842097
93.0761052811115
93.0508998015908
93.0565659901687
93.0281182690675
93.0316017610801
93.0322383683535
93.0566364927588
93.0924714497419
93.0410208097511
93.0648199801533
93.1016227096223
93.040243878019
93.0355345510235
93.0631570907892
93.0898155888067
93.0647663347116
93.056043023831
93.0928942920363
93.1252341542628
93.1011069970387
93.1056438702891
93.1152557363786
93.1237987328315
93.1374436007211
93.1478397851946
93.1377402116928
93.1517009065122
93.1234564809484
93.0690906617877
93.0813046321346
93.1095009137367
93.0679952958987
93.0082234366895
93.0151970943541
93.083306142348
93.0852747731759
93.1118300924989
93.1294410881278
93.1065264625232
93.0672119687614
93.0801727025091
93.1093163904244
93.0892663146276
93.0568586644174
93.0825085145522
93.0998870796369
93.1253275615036
93.1253053970097
93.1182984610319
93.123808579127
93.0982445677775
93.0496592998343
93.073510466905
93.094091659044
93.0422001254192
93.0307745179278
93.0583590819715
93.0792360416968
93.0622457359254
93.0391013299503
93.090160998697
93.1248404460639
93.075166226999
93.0648326019075
93.1539197275776
93.1536301890153
93.0791170086205
93.0584194948145
93.0550157851356
93.046315866314
93.0603743846903
93.0418265300083
93.0325985728953
93.0246093848818
93.0003408607063
92.9978008119621
93.0449704983444
93.0367300886134
93.0421484000659
93.033685470799
93.0468832550021
93.0163709837464
92.9881488079746
92.966503364976
92.908607004895
92.8830115214348
92.8619497518503
92.8281753171312
92.827353670588
92.772082738562
92.7252043441467
92.7407061154574
92.7383540664033
92.6650357288684
92.6834856598315
92.758521143094
92.8164888099939
92.8902329400544
92.9128853303871
92.8207134460658
92.7826371156625
92.8769565803925
92.9212274640674
92.8141455102881
92.8567210725836
93.0089435631857
92.9997054478357
92.926889280752
92.9568140603708
92.935299433622
93.0090419906869
93.039927245878
93.0022142199243
93.0513126477272
93.1131318822463
93.1591543014049
93.1784401878285
93.1925215438781
93.1779955664405
93.103449064005
93.0194017021014
92.8882322441349
92.8335993252642
92.7396540285859
92.657606889499
92.6315617038673
92.715659705449
92.7023113425458
92.7320905863439
92.7238285906397
92.7620878817551
92.7719696952571
92.860103046303
92.8810556228818
92.9035517040354
92.8247944788257
92.8269197620876
92.7394414261453
92.8457384643061
92.854483312271
92.8781314879618
92.8141546457634
92.8542601265513
92.7649006606839
92.7437381478985
92.5767751090069
92.5533544416305
92.5456946345532
92.6586370961412
92.6420079040408
92.5581675228124
92.5856680158287
92.6913478947507
92.6896627288443
92.6890958366038
92.7712330083758
92.7163460692889
92.7492448710116
92.7564482598217
92.7910374690115
92.7586313733032
92.8017266902511
92.7690459089543
92.7874022178412
92.7972249127164
92.8222518238112
92.8309729768162
92.8313694273535
92.8721831211325
92.8607186028651
92.7999304551849
92.7816848736564
92.7764284400428
92.7904039145381
92.8163752015308
92.8761234416185
92.845618102602
92.8903345651366
92.9559218231829
92.894499360173
92.8559399536335
92.891456013111
92.8049542185484
92.7870996421019
92.8146243421022
92.8787378739776
92.8251713360707
92.7389418462739
92.8536672498308
92.9573162721103
92.9463017061967
92.9457059985481
92.943081082509
92.9443067864788
92.9354442749074
92.9360029116107
92.9361846095365
93.0157298509673
93.1226286518232
93.1740050657411
93.217597068429
93.1594906049697
93.1315927812007
93.1101261778614
93.1158791429965
93.2167946326226
93.2065375980401
93.1557984971189
93.2209209058875
93.4122795816935
93.4559662225263
93.3628825074266
93.2931133586357
93.4168470389638
93.4728913422493
93.4471813752928
93.46137162004
93.4557795617945
93.4574468938205
93.5376040801005
93.5214601416919
93.5187480687586
93.5778204473175
93.5522932874536
93.4801197566297
93.5333799078632
93.5786299905718
93.5531001816325
93.4749224605509
93.5016943701244
93.5366159189695
93.4610500339458
93.4798405010176
93.6091656430034
93.6287508428695
93.5870058989946
93.4776002776431
93.5341954735909
93.6958991039892
93.8180190598089
93.8756650992764
93.7570050627434
93.6230582249812
93.5803588433702
93.6387580192373
93.648252876246
93.6741231209185
93.8113959284492
93.9719318660712
93.9257489798697
93.8940146937363
93.9851222893479
93.9793910092064
93.8750391172072
93.8304750878973
93.8666395102785
93.8513320686594
93.8730279394399
93.8674125445086
93.9102581616809
93.961706947564
93.8668448481598
93.8064369606791
93.9650299734188
94.0762117306298
93.9955052389219
93.8199523361674
93.9348638447629
94.0669839128512
93.9814096765894
93.954197509173
94.1278339123847
94.1102896121024
93.8949159259534
93.8652304055645
93.9760022532972
94.1015835042897
94.2176004091786
94.287978698956
94.2399598019401
94.0881207826827
93.893080668681
93.8002000059902
94.0158220004046
94.1558442914957
94.3334857863501
94.3948330045721
94.4044571193489
94.3433144293335
94.4137303534645
94.3270071615817
94.2621332836178
94.2304734624648
94.35480660363
94.5018483140403
94.4891600918279
94.4488906734994
94.4178579186821
94.4427298822233
94.5757410791934
94.5888655964484
94.5255901633483
94.4694592358777
94.5307316329916
94.5805585141888
94.5790484554188
94.5143091513254
94.6346197009079
94.773830314352
94.7192476605206
94.5885727472661
94.6842224998271
94.6047128662643
94.638478844558
94.7923904512369
94.7938706614989
94.7671898418662
94.8078490583016
94.9674034953432
95.1712761715389
95.0846388675404
94.8770177365133
94.9303504565718
94.9881872092547
95.0451676555144
95.174789723983
95.1247778917221
95.2284797505635
95.0644593674124
94.9525131124286
95.0827560576991
95.1632854397213
95.0509900853444
94.9514257628832
94.7971472960864
94.6357519095041
94.6451996303606
94.8191137295943
94.9481896384722
94.7950067325989
94.6429746210217
94.572519322545
94.3943321379244
94.3290829583595
94.2881353454419
94.3388835398206
94.3096591483333
94.1043800172418
93.9519847922646
94.026003428305
94.1224847991706
94.2381965927544
94.270769994106
94.0963405556623
94.0110391181503
93.9880176923137
93.9670028075353
93.9862062709008
93.9674035159056
93.8617589234142
93.7264243590011
93.7326363269544
93.7110950776054
93.6691958957131
93.6688566447249
93.6633962610723
93.6584745068118
93.6806369026295
93.624781076958
93.5467980278235
93.4061702806203
93.3762130642742
93.3453100394696
93.4108936982614
93.43205369652
93.3274270294485
93.354914971042
93.4607140375191
93.5567306475139
93.5131819166768
93.5241652641421
93.5900064939627
93.5836808357717
93.4788091350383
93.4459108437593
93.4933595667992
93.5081234957052
93.5123091830234
93.4515675930429
93.4963106790496
93.5734502378444
93.592878998714
93.6110759839276
93.6042290070253
93.6376599938079
93.6512082673997
93.5348604860677
93.4760735544575
93.5047329540217
93.5116885198779
93.5432071284582
93.4855134057182
93.4154103258926
93.4799395832201
93.4507249768729
93.4316627960507
93.3933105388925
93.353181097543
93.4096904496676
93.5427664187113
93.5685894837512
93.6419548637746
93.6218731161647
93.4880975349671
93.4569758117376
93.5209894800062
93.4495556909043
93.4990167433394
93.5387178753588
93.5274494900899
93.5319782100746
93.5908868893237
93.600289016607
93.6658113609842
93.7498445607962
93.8043582933097
93.7866519031698
93.8177253045673
93.8535502526003
93.8967334890464
93.870795858034
93.8915964679437
93.8290447827445
93.8827567641837
94.0101122590308
93.9751135023384
93.9541951550415
93.9785201512714
93.7716549914729
93.7075479571519
93.9446243246751
94.109495952619
93.8850405243251
93.9271916162848
94.2644876971106
94.3771088112215
94.3886575347179
94.4271415894718
94.2413935700817
94.3119894911424
94.5582695229801
94.6922411753191
94.5988467187391
94.5588762472495
94.7309147665095
94.7326912696108
94.5640961182574
94.7712371082943
94.7800035811405
94.5531566880669
94.5650476787869
94.9153059966141
95.1568409300886
95.1062460605775
94.8311067723598
94.7949912265651
94.8006829836631
94.9881751843491
94.9525432893365
94.805862364577
94.8041926869927
94.7585376465264
94.7017357946069
94.6682449692576
94.6708233284064
94.7757928597099
94.8999968114287
95.0809272511351
95.1307165034894
94.9983341300368
94.9351798539222
94.8932586531603
94.7733515766669
94.723643997234
94.4918190995795
94.4559220100581
94.4259476155853
94.3690839929252
94.7054190125402
94.9295858973805
94.6480380114757
94.5628083073511
94.5877055642409
94.498045479025
94.5247003291374
94.4798560298348
94.5371676408219
94.6554576758138
94.5082419062171
94.4290776147412
94.4937506028632
94.437058763859
94.1438017489719
94.2409901035423
94.4156023846317
94.262745699663
94.1968838260446
94.4444046324689
94.5921928255512
94.6110998517425
94.4723828380062
94.4274319734275
94.4511990328189
94.395547803362
94.2357782133242
94.4071474135549
94.6446383250527
94.527370337978
94.2612592326813
94.4711744973386
94.6599968964374
94.8334877259236
94.9659479022379
95.0146472035875
95.0215581253499
94.9500749305752
94.9863103158668
94.7650880845086
94.3507600388508
94.5688791389203
94.8330519209633
94.7271712792219
94.3911728632597
94.1748241353436
94.3065501773116
94.5481386308041
94.4922793872962
94.3599613588909
94.2417357339657
94.2519010965902
94.3443216654104
94.3636668596038
94.3256654581101
94.3935905685086
94.3105443400413
94.23397417093
94.082007619121
94.0013411332134
93.8894188997081
93.8130037820912
93.8482916601946
93.8874675227787
93.9660755480317
94.0610815116538
93.7401769212955
93.4602218334539
93.5557405363844
93.7055496737508
93.8380312691703
93.9596589772676
93.8824127186784
93.7067342187108
93.6701323266953
93.7390467447481
93.6910233461383
93.6171978669191
93.6504885390122
93.6843291334912
93.582298250301
93.5536320860671
93.5993934351275
93.4930091017413
93.3362564175735
93.4106497163086
93.5220581341913
93.3358185472079
93.045061042783
93.142063910412
93.364484727074
93.4944770692937
93.3146374725684
92.8423964251594
92.9754759888566
93.2197624016723
93.2884349266115
93.3386013391234
93.2754745498737
93.2590205991048
93.2725987598725
93.1883829970938
93.1052257974653
93.1283555254537
93.0373183665634
93.1306120142005
93.2518923944212
93.2286935260003
93.1657507127876
93.1729610255444
93.1161145817661
93.1559027587606
93.184025617918
93.1583865562073
93.1985841888968
93.2588871699197
93.194832194222
93.0283501368172
92.8814040616495
92.9542256109225
93.0775893669611
93.1105861975344
93.0289504171692
92.8248151318959
92.7097733049385
92.9824996885519
93.0506896883621
93.1218108961146
93.137552099876
93.0926151321563
93.0505758344247
93.0706043445862
92.9744938985799
92.9227456743834
92.921478196703
92.9846085894252
92.9877732639954
92.9722299790337
92.9259128445422
92.9163760165844
92.8758256971675
92.8825020505763
92.9296051492475
92.8662054611629
92.7152155056118
92.3539913577565
92.0910573663645
92.2644189990655
92.5764149713052
92.8329869202642
92.9733844120373
93.1011166039867
93.1007656181654
93.0406377185899
92.8885935155331
92.8478912856223
92.8311002867845
92.8140776095467
92.7524242751498
92.7984856097045
92.8563379625843
92.925253155767
92.8710190448463
92.8335722082543
92.7756706058321
92.8188639851506
92.7954878015026
92.7693796397808
92.5873811694034
92.5141576378295
92.5305492070915
92.478833293892
91.9385660249336
91.9381214318781
92.4951852836403
92.7633358266575
92.9582282449187
92.9498334869975
92.867846877871
92.818889664888
92.7219941195013
92.7384811880668
92.7361522954415
92.7335527791081
92.7235970310371
92.706214225157
92.6326494628537
92.2160832730944
91.7461419848603
92.1061877711294
92.5298890724237
92.7419103092858
92.584620369372
92.2777122272825
92.5446952218595
92.7131358237125
92.7371736893043
92.7831417468327
92.7738198459157
92.7326105076467
92.6344930627297
92.5408671969897
92.5707495672884
92.6630355423045
92.676315581456
92.6762699095968
92.5431408734683
92.4573412359221
92.260334663594
92.191927611302
92.4381099348482
92.4969682112492
92.5334093421467
92.6628114724439
92.6437087182794
92.5767919099852
92.4725423801586
92.2071671446098
91.9926674349826
92.0916711567991
91.9785954314203
92.085239163031
92.4078570465887
92.4249613616461
92.2772832670557
92.253408611789
92.3628235071086
92.0570918591141
91.4590121812049
91.6354701032411
91.8921911169322
92.3638773523822
92.5355082472706
92.6075110882764
92.5919577674415
92.4733215382577
92.0706672314169
92.1893121309469
92.3175703612438
92.2852321498959
92.0817638865539
91.8991532171393
92.0953211808787
92.261396048021
92.3283571498318
92.2453725474241
92.0029494607597
92.0493274560873
91.9703340173226
91.2148071959937
90.8955214949212
91.4101476868053
92.0646088030565
92.3209110041377
91.9240414106495
92.1379801841345
92.4729388094235
92.49797295466
92.4108856888496
92.2702681751267
91.9060126847451
91.349845811076
91.5963060873013
91.98780383491
92.01010233942
91.9921160562987
91.6803092519886
91.6654415330273
91.9858502752189
92.0847486749628
91.9704241176245
91.7255948950473
91.0717627922606
90.9407844857409
91.2179412503872
91.0855829307965
91.3685428826711
91.6300286304562
91.8506045972965
91.8813506752092
91.7078814254569
91.4680825506095
91.7168219593075
91.8241495851023
91.3731558309621
91.0298572199125
91.5435907039939
91.7461986621989
91.7809685699365
91.4818900633409
90.4431758088811
89.7556207925
90.7238587861663
91.605521674566
91.9350615428157
91.7732533885349
92.0245822939407
92.3121861991114
92.2357715167472
92.1020950490981
91.9966891236211
91.859879798666
91.5681170797722
91.5634529954878
91.68643440701
91.6585875786845
91.4701835192074
90.733078180348
89.8065138471897
90.0034677447945
90.8162237367785
90.9943657139515
91.385203689901
92.0562058293745
92.3469117181379
92.3610046357212
92.1043535239999
91.980260948974
91.9533220326649
91.7557661282037
91.2664889894216
91.0329565214189
91.1259299751426
91.1830001180874
91.6279628512228
91.6202178566826
90.8281739120938
89.3460550381298
90.378988459343
91.6494730147824
91.8236316182737
91.4006997847187
90.9050095489823
91.8143549775709
92.4443280493576
92.454902602765
92.3639962930994
92.1644116857627
91.764792406086
91.5727841652956
91.448659315198
91.4880573304662
91.3726636320652
90.4577720875525
89.0063531406768
89.5155589910067
91.1370739094784
92.01741030021
91.9762290160343
91.8472269202062
92.1638466569001
92.2290707950575
91.941204985923
91.3398967274543
90.5317240112927
91.1236409544539
91.620398208626
91.5656773978944
91.2173043272444
91.1671039986323
90.7948162421473
90.7126594047567
91.5608040520552
91.9535571161125
92.0864460892825
91.9949835833567
91.7658674361967
91.1500657460133
91.0231843375606
91.4606891621366
91.7033610548849
91.8001756666444
91.7682726992647
91.6886258054119
91.5189785368474
91.1208786493181
90.0053271484346
88.2307301073912
87.5529089245984
89.8821628814479
91.7752795013295
92.2661586664674
92.1962853903052
91.4901609533518
90.8771878543867
90.6709543565371
91.01681383369
91.8424672549922
92.1600100808187
92.1441580924185
92.0407665520536
91.9456362994214
91.7522055265631
91.5170699825833
91.0559089359428
90.4730780656467
89.8500056784611
89.571071356566
91.0479923861966
91.9421664509374
92.1873554026886
92.2107207308303
92.1459565126894
91.8992399530626
91.5376205652625
91.1164414569234
91.3173654186426
91.5083579896399
91.3702703019315
90.9325807981367
90.7004968960675
91.2829905872734
91.6809525227441
91.8260958429344
91.8252620933253
91.5578975075856
90.906758308479
90.231675557979
91.0008011438664
91.740118043843
91.9650505789074
92.0170529135543
91.972399730465
91.8455014511448
91.6253567585877
91.4570490345853
91.5014479945959
91.4752359557333
91.5414804278556
91.6690873347117
91.6508491774497
91.582506438376
91.5384155380351
91.5740059913216
91.5679618456047
91.6347535168994
91.6513399387312
91.6211667353605
91.5731687578943
91.533861175707
91.5082979724388
91.5104495943602
91.5796849846048
91.6025537834342
91.5905703274409
91.6123163919147
91.5751336460127
91.599909465831
91.6050523803446
91.6147434291925
91.6372264742005
91.6353767915001
91.5947156565842
91.5831554426388
91.5555889031263
91.5811759975201
91.583530629501
91.5526223461562
91.3601290682447
90.8484275286345
90.0667849452623
90.2919498882088
91.392297289395
91.902721176305
92.0570740796536
91.9948885664418
91.6015788170721
90.8114569577293
90.6020995921256
91.3890830449198
91.8088081777251
91.8095191079372
91.6006226731605
91.4414319258651
91.6344673761579
91.6065048112677
91.1685524962344
90.1190106420278
88.2583014890565
87.1777580905276
88.5460556507681
91.184207063428
92.1971496784744
92.2234512118762
91.7989340638194
92.0447019278926
92.1975468952018
91.8536666737293
91.3528428068671
91.1219728876535
91.5813897973453
91.789795909014
91.5756359978443
90.9677737918829
90.3842055379637
90.4086323838485
90.2195360258669
89.8173211984556
89.8354803649569
89.3503937346375
89.2321706596007
91.1780160176007
92.3119064984023
92.5887372373422
92.236223981508
91.6418637023175
90.8243010764957
90.814826380366
91.4022859295166
91.7111894151809
91.8754380945288
91.6146668879321
91.243203044744
90.9254067401717
90.6905386605593
90.6153354031362
90.9874794937936
91.1800859734728
90.4496635439692
89.7776335730569
90.0601606286411
91.2804992685398
91.8152352933163
91.5046373012529
90.8240586868001
91.1478640394475
91.689908527044
91.876836929771
91.7771204868311
91.4524079000016
91.3477569443388
91.1497113522559
90.447936007988
89.8476155969654
88.8909717054939
88.0538294982199
89.5999945920113
91.6740598093147
92.4939388969513
92.5528942806817
92.3090853414986
92.0533570489008
91.6206214014085
91.1269225254394
90.8269690700489
90.8821990056567
90.6312487609393
91.0566951714929
91.8451206642193
92.0683872615617
91.904392288316
91.5056516159157
90.6750607911653
90.2147023018985
90.5567369629194
90.9834088442848
91.2330817191267
91.6901633045744
92.0183278791297
92.0195185665161
91.9021378246486
91.6700174840661
91.4330075100956
91.3816651938352
91.5159727293772
91.5843017571469
91.3727512749058
90.9245372133806
90.6900669669853
90.8864031346541
90.7257099594513
89.9580062940813
90.0703512983028
91.0327181207366
91.9152522809537
92.1428447395039
92.0490532035604
91.9169745587548
91.581339672578
91.0404124098678
90.6419595799738
91.0518599406343
91.5739178898217
91.6889536132986
91.6662965142634
91.3037089376836
90.6116457969288
89.6663465162498
89.0346848265416
89.3888338449597
90.7976994910536
91.8397310073883
92.1674001635492
92.0447933253865
91.7698130435659
91.7314669516781
91.5876274386065
91.2122474155314
90.9200496400517
91.0671651671807
91.4510669125788
91.573253977362
91.6381209317468
91.6290787275271
91.5449573744236
91.4553703615861
91.4093537584458
91.4047355635694
91.2566266204948
90.6856893111075
89.9408038093636
90.3478412207906
91.3379834724153
91.6943171470827
91.7396986836861
91.6913840682496
91.4566855476134
91.1394237805
91.0431983774108
91.2775676743829
91.4671725273751
91.5476978363782
91.4571669442066
91.0713231629345
90.8873275597814
91.0879655601862
91.3998350330883
91.173858448664
90.5878922978268
90.0037885100661
90.4250320869891
91.0722649775315
91.4011722098781
91.6920880064377
91.775005405505
91.664810608433
91.4544962811001
91.2847488225381
91.1854918510403
91.2066008665163
91.2393875109152
91.2779418706964
91.2462839131076
91.0078947344937
90.7676544354598
90.8756611989177
91.1734246795687
91.2774694455759
91.2940914569037
91.051265430651
90.600326462135
90.4521731600819
90.781333606538
90.9450141369977
90.7858459567235
90.5889490397772
90.8367901140072
91.3242156676721
91.5573756036044
91.5043403617242
91.4734406930897
91.3343765827621
90.9355369761727
90.5697460087828
90.7447052344861
91.2133740622258
91.4481198209349
91.4983330076178
91.4483581533327
91.3656144847918
91.2546962674227
91.1833234643997
91.0926931857437
91.0979203193377
91.1822508418591
91.1834938440077
90.949713100725
90.698805312674
90.7999450249158
91.1741230384358
91.4618543682899
91.5109415307812
91.3699671437121
91.2276768254535
91.249737572673
91.3458246779971
91.3837801450629
91.3733672793497
91.0524328307056
90.7429523922615
90.744711653727
91.0266967284787
91.3492922615123
91.6079095727621
91.6262932772395
91.5443305444238
91.5212598790815
91.4364406129903
91.3541255943361
91.3705944396282
91.4467559532557
91.4732444549314
91.475588466615
91.4546209432332
91.4401622424714
91.446558863219
91.4832229636267
91.5053626131224
91.5060401607803
91.5303793648153
91.5302369637236
91.5451727057258
91.4346229263849
91.1598342661257
90.9064042136301
91.0029294783611
91.2733301451305
91.424852974891
91.6189035736522
91.7614466055708
91.8020950847976
91.7221249243731
91.6936438249023
91.656644977743
91.6326708164459
91.6013020629011
91.6006251284196
91.6117256546758
91.63420128256
91.6340606477553
91.6473647495887
91.6153728300221
91.6153957527453
91.6149516400957
91.6013305127905
91.5436149320166
91.4963589234974
91.5000306302609
91.5174941530091
91.6002608900068
91.6635837582253
91.6747048745564
91.6035932700116
91.5478196792288
91.601943415674
91.6823256775872
91.726382667455
91.7057965518215
91.6746311110686
91.6687256644664
91.6830703807045
91.6933011166027
91.7094575711493
91.7163692706333
91.7181958358956
91.7201731896687
91.7259801009615
91.7294903712136
91.7218125298058
91.717417796401
91.6804049070335
91.6727780439689
91.7134431025106
91.7275934673776
91.726865560872
91.7171420208272
91.6995979080426
91.6856864264494
91.6923240529914
91.6684689279956
91.6374698752271
91.6610207240682
91.7103408506411
91.7290066151803
91.7363312133002
91.7324499572448
91.7262121092776
91.7088786577451
91.687216194466
91.696383760613
91.7176772298862
91.7269006022485
91.7272137342619
91.7219256262147
91.7226586244861
91.7332622537974
91.6947599097934
91.6648551572286
91.6559999034058
91.6710022711458
91.6890945054156
91.6948700548435
91.7049980903972
91.7019975250481
91.6865063498988
91.6693309000644
91.6691485998554
91.6871408342409
91.6945517387966
91.6568385001497
91.6524946134515
91.6820155393629
91.7169435336566
91.7396380507684
91.7680009217586
91.7685784760554
91.7566758253502
91.7624621575107
91.779527158887
91.7714574008511
91.7686938698635
91.7951337227097
91.8185703379642
91.8141554577165
91.7977840484435
91.7924227553117
91.7904520108
91.8006471709442
91.8093365352188
91.7986271679361
91.7966077362381
91.7840072630389
91.766692066049
91.7581189140293
91.7584240006682
91.7546077518546
91.7543690053002
91.734977745497
91.7095669762771
91.6947709909731
91.6731927280209
91.6571531825625
91.6565891497596
91.6592000998145
91.6633534839346
91.6742159323227
91.6752554956082
91.6685415189971
91.689407942401
91.7161962678125
91.7431381531315
91.7640303984861
91.7569489785966
91.7398667702747
91.7156795190633
91.6684055012556
91.6304250342489
91.6275777980917
91.6502645305814
91.6748141769528
91.6952515467827
91.7069651708038
91.7214825436046
91.724814347932
91.7259219994828
91.7217666080349
91.720678189116
91.7303371434551
91.7283834625858
91.7133488991422
91.723890644736
91.7296182792393
91.7175554573882
91.7176215640856
91.7332009760407
91.737367819109
91.7398407493653
91.7620307953954
91.7968361645173
91.8081339364609
91.798638484259
91.7993563544327
91.8004908154259
91.8033749074278
91.8193260235342
91.8283722722823
91.8407919683556
91.8406206112127
91.8164310967101
91.8084346636341
91.8294674264131
91.8417648808381
91.8314038614409
91.8193169246222
91.8056578757377
91.7961507540176
91.7924535719754
91.7979333375209
91.7902977409619
91.7786145670864
91.7778110304595
91.7671037689472
91.7624272288159
91.7719987811426
91.7816877695858
91.7713107295777
91.7606079176215
91.7594919961848
91.7605753454577
91.7420707178052
91.7371609502667
91.7351514486808
91.733079567295
91.7308874731624
91.7319164521785
91.739851974153
91.7412113408461
91.7180003957173
91.6993149175849
91.7040077292296
91.707308174728
91.7044721619666
91.7122811077865
91.7110951070257
91.6945960222295
91.6937752608456
91.695545168912
91.6958287785692
91.6991549551136
91.695925982694
91.6891210558839
91.6965206418236
91.6928380726028
91.6707838731564
91.6593026928486
91.6631361497835
91.6651476231746
91.6516305344338
91.6487347407426
91.6415485255983
91.6280706008908
91.633529722906
91.6362382576047
91.628695384351
91.6201400285813
91.5991756566365
91.5784641549459
91.5772774920607
91.5650339363107
91.5466343461868
91.5243380841809
91.5152196430942
91.513486079482
91.4970940412256
91.4679985794247
91.4533757415476
91.4452768599914
91.430932153757
91.4164874116383
91.3956554497312
91.3698244097447
91.3571242747071
91.3505100495128
91.3221541614024
91.2955646597039
91.2726930235153
91.2482359194073
91.231220069841
91.2013844524278
91.1705938635214
91.1505434256138
91.1332162756359
91.1028801221953
91.0769445752777
91.0673274285111
91.0533389937533
91.0428069527015
91.0289977841647
91.013855757257
90.9923069564584
90.9839353743993
90.990941361636
90.9670067950162
90.945610164231
90.9515631447949
90.9442285486036
90.9198797414545
90.9205172991735
90.9254022172783
90.9212044338714
90.9135801809877
90.9034692772821
90.9038388971828
90.9101621392821
90.9088991347474
90.9095300128115
90.9147023271392
90.9099500384769
90.90667627897
90.92118424717
90.9154370591691
90.9165666767355
90.9217684553172
90.8974887825178
90.8820241315021
90.8768420808242
90.8760306837843
90.8800092004905
90.8661195879867
90.843745185943
90.8438412598069
90.8415536388522
90.8323155813251
90.8273815084205
90.8054716508301
90.7681888883253
90.7720709517929
90.767563061314
90.7683634326219
90.7683911165371
90.7482934625022
90.7338651544857
90.7274798514421
90.7270314212819
90.7160618855978
90.7034946640355
90.6960370801903
90.7047008154973
90.7013769587647
90.6636561876716
90.6426536425696
90.6466375375819
90.6383674792924
90.6220327333857
90.6202995415124
90.627265838699
90.6100626665373
90.5910259013127
90.5816550486403
90.5939951460483
90.5914783606208
90.5595805501489
90.5441476476883
90.5554967470731
90.5503011127319
90.5497141200856
90.5503420646369
90.5513294612378
90.5456074238146
90.5484968617307
90.5416535198375
90.5537315305987
90.5763066848345
90.5909896250918
90.614016371847
90.6395625910809
90.6471730641125
90.6464883618627
90.6664459551442
90.6982137531641
90.7310386557653
90.7724459761543
90.8114372490146
90.8461288450174
90.8797886198283
90.9179576385551
90.9429696108499
90.970294728923
91.0180133822818
91.0474192277988
91.0574178729331
91.074709401112
91.1132319515248
91.153489144701
91.1919976275888
91.2228287697015
91.2465754126551
91.270977369012
91.2811197830727
91.2927289786502
91.3253830183925
91.3523368919583
91.367292677901
91.3885013871881
91.4266800227588
91.4393339334561
91.4491420518204
91.4792757698389
91.4855410510437
91.5037472157994
91.5335985544128
91.5481242387792
91.5434915105582
91.5373498600365
91.5411812644742
91.5550652064735
91.5752286730912
91.5722255832454
91.5639301436597
91.5891958263193
91.5935852582572
91.5891062954805
91.5953047015934
91.6108590466659
91.6138869395314
91.6207155058271
91.6181237725764
91.6266347261735
91.6268526707937
91.6318480595033
91.6286694915223
91.6228126642931
91.6483156274486
91.6582460906137
91.6557763880794
91.6706230363959
91.6792605580737
91.708244301404
91.7190670106364
91.6911607629112
91.6753208239609
91.6735261694692
91.6871424169974
91.7347757132987
91.7338667270049
91.7171939466139
91.6974410919738
91.6826086457961
91.6722561174222
91.6577462495385
91.6856936125483
91.7347337863778
91.7422572283306
91.7419052372761
91.7283312000177
91.7178292695645
91.7153899650366
91.7306697501506
91.7542964847287
91.7746108962228
91.767095960483
91.7540227977559
91.7622058695401
91.778614071558
91.7833757510915
91.7981501534684
91.8314103453894
91.8116401112101
91.7684321663642
91.7841614236674
91.7907219645656
91.7909940643856
91.8106162037774
91.8102152424951
91.7961120584153
91.7908219598045
91.7960682150142
91.7671588482094
91.7543072896471
91.7890117017681
91.7977073179984
91.7872376679916
91.7898260883832
91.797518604908
91.8015966401338
91.8258912728115
91.8366881738544
91.8149448622063
91.8014075300188
91.8168996961409
91.8371786334112
91.8345267578059
91.8348182076122
91.8355221636185
91.82246175753
91.8166577197473
91.8067613253215
91.8364154664495
91.854523290995
91.8778573343752
91.9070449746423
91.9088042201788
91.8541365811703
91.8360652716853
91.8438529594007
91.8534001682378
91.8947957665155
91.922141264431
91.9183227741449
91.9131350019239
91.9112889453614
91.9358577659503
91.9774712611218
91.9677104354935
91.9468550678477
91.9568369241313
91.9742900868055
92.0072440319563
92.020886533479
92.0161839968801
91.9880340577831
91.9620619137592
91.9752198414357
92.0144675197581
92.0389300816711
92.0310337190755
92.0260679569151
92.0272901991331
92.0142791699766
92.042690532503
92.0491865235
92.053361346275
92.0495450568413
92.0320843498294
92.0316910407537
92.0253419523966
92.0386028557681
92.0409869448351
92.0335313358409
92.0515707425449
92.0474580804365
92.0557992646296
92.0590321757062
92.038290857644
92.0014247422067
92.0050166943426
92.0558393256042
92.0661007493275
92.0415388329115
92.0769483368958
92.0868129817256
92.0537883737813
92.0539068793062
92.1026358652978
92.1306962116898
92.1254970517516
92.1028243325304
92.0964471355792
92.1334620147963
92.1761717131464
92.1798703851443
92.1859937307136
92.1806563076954
92.1874241712276
92.1859556765128
92.1937356472722
92.1905569251291
92.1979408868329
92.2652013805227
92.28827240464
92.233502884479
92.2245407379279
92.2580414498356
92.2833604474474
92.288706271721
92.2784856004823
92.2583841561397
92.2417900909653
92.2471509804682
92.2814595836532
92.3431783418809
92.3606173415487
92.261839116814
92.198336842646
92.2375713413387
92.2783647232197
92.2686349944703
92.2706233701763
92.2836845397466
92.3135658416596
92.3185525331605
92.3028076774831
92.2800463805049
92.3110789599347
92.3338526522214
92.3000266275463
92.2812000592678
92.2537781084951
92.2623415618883
92.293196555835
92.2773201960716
92.2693535057815
92.2678849589981
92.3038781465187
92.3119401497384
92.2397373945277
92.1975533002087
92.2163855575018
92.165891462404
92.1116836798214
92.1598274022056
92.1751571876888
92.1284514534817
92.2001000358563
92.225798468205
92.1650813139862
92.1963464782044
92.2456091375927
92.2569619608212
92.2060922132225
92.1854135828679
92.2115643777368
92.188467534311
92.1425227351837
92.1301823175473
92.144410674948
92.1654181966987
92.2163495433547
92.2038691091459
92.1611830460205
92.1675607925729
92.2818368441422
92.3623425591958
92.2972220539073
92.21848022384
92.257390168443
92.2707525360686
92.2614155450427
92.285483693669
92.3137900039213
92.2444559113475
92.2429557381333
92.332074515333
92.3362301069206
92.3128517118018
92.3122560459185
92.333583006151
92.3705855368138
92.4064580374497
92.503111778779
92.4961395929791
92.4065690243466
92.3692044773669
92.3789728136182
92.4122007083492
92.4320137298405
92.3892148070545
92.3379966056678
92.371078090495
92.4294332333404
92.4735969441557
92.5308888096458
92.5108566020858
92.4020492861578
92.389406609713
92.4211663322043
92.4429965647003
92.5386580742842
92.5998843290604
92.5468060309921
92.5254858545966
92.5491068364961
92.4766813704691
92.4033138132681
92.415051586997
92.5052458673636
92.5179207528836
92.4552034654671
92.5038168351219
92.5259951012243
92.4233642057882
92.3584800869999
92.3356708274464
92.4293212941639
92.6082685719903
92.6165409184728
92.4870887127914
92.4475398434992
92.4283938243138
92.4901676493387
92.5029398393057
92.5834603279117
92.6015530380715
92.5344927183862
92.4803161497438
92.3330574776533
92.4521446357776
92.7407386467856
92.7413831612464
92.6415777297078
92.6318213133361
92.7180483732288
92.7446752528628
92.7435924440993
92.7170805416487
92.6531577427405
92.6318468454635
92.5496797287771
92.4683689238107
92.5076088122192
92.5438176433452
92.5560319266712
92.7362083413069
92.7438166825066
92.6347560783144
92.7891646237047
92.8009453202653
92.6602392155076
92.7237611200521
92.8244648266761
92.7532068506446
92.7876330489329
92.8503689095421
92.7129763739015
92.6623669020898
92.8371689297871
92.8648401747152
92.7681066109467
92.7284536448025
92.7071547548264
92.8039002629777
92.9318316198164
92.909313417188
92.9358063928455
92.7313568528641
92.7549294518314
93.0285410412351
93.1217944938285
92.9371159804559
92.7939228430852
92.7533764920011
92.7718944461154
92.9719394426732
92.9542313933603
92.6855430538406
92.6244402621659
92.4456006165163
92.4424536419332
92.886908900221
93.0871629262134
93.0918717446517
93.2356216631177
93.1865372237155
92.8917383183414
92.7252335144109
92.8921911576614
93.1398269467227
93.0771011655126
92.7070479258574
92.84166836955
93.2017027997932
93.2615002363401
93.1313984879991
93.1991070032198
93.1063346444383
92.8559070712633
93.3273467511541
93.9089172442187
93.355601930425
92.9886919919954
93.0250711373355
92.7898927859168
93.1302451214244
93.8017096790676
93.6582094991344
93.4894289362833
93.2184155842466
93.1146638265331
93.3706804539407
93.104292672371
93.0250352724347
93.6662333860433
93.8805428604212
94.1388129705265
94.2601650621516
93.2267074117878
