1798
3999.43349933624
650.420452594757
1
128
4
98.3968283179799
98.3724037327852
98.3877234698294
98.399847115385
98.4172891653223
98.4471194728954
98.4271755363035
98.4255981233393
98.4423149498872
98.4359210432421
98.4112060827115
98.3592054258029
98.3719613944946
98.3959633988374
98.3794905086145
98.3950909588503
98.4378911243123
98.424259151936
98.3556388807937
98.3758992831444
98.4158771458772
98.4347470657351
98.4286831238425
98.4201827687538
98.376637797255
98.3064010554813
98.3614922634929
98.3913663811812
98.3090512765539
98.3527176055632
98.4185566994647
98.4218771698444
98.3986518141639
98.3226493769696
98.2870326513046
98.3342249124269
98.3883733995235
98.3839162337142
98.3760452900916
98.4122362719116
98.3779763940559
98.3422865206017
98.3125276354837
98.4158705379334
98.4681047291714
98.4784641495874
98.4866418280344
98.3973583997681
98.2445718686554
98.140717981979
98.1613573213671
98.2144108240488
98.3754866837873
98.5277505908011
98.4909338973635
98.3383244705617
98.261075362051
98.460860081031
98.3982310379634
98.2377301322461
98.3741092724965
98.3104743987876
98.2934133620861
98.4752438118284
98.4253350244766
98.2782200343698
98.3014391969464
98.1484888942106
98.296265248445
98.4734543558821
98.3066702146476
98.3797473006184
98.4534905703724
98.5150733462018
98.4108467891132
98.1871683403559
97.9027429411657
98.236485765827
98.6079199716862
98.5986780611143
98.5096234178937
98.39037566156
98.3249248431045
98.2445261290738
98.1382325282108
98.2883383627158
98.4747272571672
98.5213619455138
98.4658578352134
98.5329008122352
98.4391926832764
98.3854133774775
98.3761990678469
98.1718549739473
98.250454292887
98.4793642084823
98.2594436378168
98.4166014759063
98.635073395817
98.6188827652856
98.4947896743598
98.2952605336106
98.4110229449036
98.3705872621437
98.1841117452415
98.4306378131462
98.4235364156197
98.3875062018562
98.5549477651873
98.5568376699526
98.486948715174
98.4696827503622
98.4788537722469
98.4373520375042
98.4358710271349
98.4239664586155
98.3939342302042
98.5050894800417
98.5580945953885
98.5396886080951
98.400984066886
98.2665975527675
98.3861235156695
98.3943045442828
98.4191652703883
98.5130155868392
98.380758843752
98.3292014768249
98.3390751001442
98.3587521412874
98.2024681143607
98.0926890560759
98.1656224159438
98.3878717916173
98.3298672438582
98.2481875633818
98.6326569230697
98.6252083298499
98.4594155870382
98.1741445262251
98.22647395582
98.3798516636909
98.563025724197
98.6000619701453
98.3975139771008
98.389356398551
98.4030226561898
98.3755454602601
98.4320518098786
98.4631384214013
98.4872011640549
98.3250847380096
98.1779009022875
98.2985646168721
98.4990567083114
98.5482437820811
98.5568464953617
98.4497170932056
98.3804297455417
98.5008180497726
98.5133842135531
98.4639168833549
98.438759990176
98.2572394273457
98.1239715913492
98.1928024508313
98.4463027905006
98.4997154061321
98.4532330082655
98.3109187460176
98.1782037579089
97.9907275116293
97.8682752226753
98.2256430353097
98.1404443321041
98.1498634542028
98.377041189671
98.3750662463555
98.2970400971674
98.2383935617095
98.1705084466273
98.0191170304565
97.850842138322
97.9391335440567
97.8591103482423
97.5494203790707
97.4565957888135
97.5763751092678
97.8361745209381
97.921981403617
97.8677692587023
97.7927252509598
97.6974617347199
97.6094001337803
97.4882263840465
97.436692842991
97.2041013469354
97.0694333332888
97.3973713154798
97.5018680855385
97.414448162417
97.1795532390381
97.0550935588319
97.1702883260781
97.1591024746749
97.0540042147845
97.052629468355
96.9999454709322
97.0077900338542
97.1813722634036
97.2612619391296
97.1373903758435
97.0293266140053
97.008774617119
96.9495419735388
96.9196618677695
96.9905108454092
96.9642299100117
96.8309986438665
96.7183034777129
96.8433419574218
96.9401557608656
96.9118996932265
96.877738807689
96.8651056589781
96.8731693830588
96.8014872509763
96.7533972927134
96.7571133330481
96.5548746800892
96.2990529924405
96.4343130148617
96.6687333467648
96.7049490056992
96.6661822079252
96.641816609982
96.5948194282618
96.5365653977473
96.444090923037
96.4349059707388
96.4046100328877
96.3160163228304
96.3455225706869
96.4160122611539
96.4420651522259
96.4282621964382
96.3659641857287
96.3752128187259
96.3678815134155
96.2868951024664
96.2934380471181
96.2863935701112
96.2254621193173
96.1713496198126
96.1530988960484
96.1573152574181
96.1819459674154
96.2182181906413
96.190405347519
96.1456604236519
96.1401841667265
96.1305159665932
96.0671663179424
96.006463783488
95.9887557646847
95.9687086718434
95.9802803704818
96.0033059703787
95.9775800513044
95.9551658177176
95.9932626850458
95.9947246149374
95.9299351083628
95.8875588186966
95.9330233402109
95.9389096987972
95.897726821611
95.8789148096822
95.8626241252231
95.8038770864781
95.7776634806966
95.799026712106
95.7673230976185
95.772365355921
95.782758639421
95.7356141227594
95.7001162277751
95.7197367407838
95.72011303119
95.6892685299139
95.6787485550961
95.7144093292708
95.7046459358524
95.6287623752851
95.5749648278579
95.5972464801686
95.5955291161536
95.54717552404
95.5099091143794
95.5194672668326
95.5834812002787
95.5890579320012
95.5626993964263
95.5165401572207
95.4575754536439
95.4502813256198
95.489273207465
95.494611014086
95.4562603897301
95.4014522464493
95.42847903403
95.4633738243732
95.4662742665273
95.4458134431193
95.4434315548696
95.4526466759875
95.4488562071794
95.4250034207548
95.4356173488461
95.44894083971
95.4316885302645
95.4165938180833
95.3756553987648
95.3660763806168
95.391860990883
95.4111660458245
95.4489732474703
95.4277439048851
95.3938452450376
95.4375373800149
95.4507604362114
95.4429516867032
95.4228927181409
95.4039872628392
95.4202204788696
95.4194615320151
95.3888194153934
95.3619507312534
95.3699137205021
95.3870420991362
95.3779660401099
95.4057724903799
95.4100319454803
95.3777781310742
95.3980723171414
95.3886868366917
95.3834514430681
95.4096990401445
95.3958715223447
95.3649518153555
95.3360968767059
95.3169758358803
95.3099821418231
95.3136170314891
95.3144736754054
95.3140481518264
95.3479321319131
95.3546761264981
95.3153073101917
95.2604609760151
95.2421903240733
95.2571490952127
95.3004934756035
95.277680812363
95.2171615278031
95.2032292639106
95.2291913726888
95.2042187358627
95.1646977704475
95.1740378289338
95.1981158121958
95.2331596261457
95.2879161254388
95.285918411294
95.2505586369426
95.2772319215223
95.2984252292561
95.2759631211609
95.2823338179589
95.3277865833997
95.3498577962044
95.3383560366121
95.3291864695506
95.3107705199215
95.3012186182515
95.3195492478793
95.2994201166749
95.2795140684104
95.2969051443639
95.3213690525837
95.3227735318171
95.3386861802341
95.3531531363345
95.3495742647488
95.3565992553416
95.368078325739
95.3667033139033
95.3601257604785
95.3643159624673
95.3389947013733
95.3158167707769
95.3242180953226
95.3322345138115
95.3580465391745
95.4011467451505
95.4016088838092
95.397847678006
95.3878458188699
95.3790957340852
95.3744889631527
95.3637029710594
95.3831317384017
95.4188565584338
95.4207304639037
95.4050827833575
95.4127816615678
95.4084485896793
95.4000085839714
95.4001749489035
95.381689670448
95.3832809834124
95.4158158345906
95.4047010191243
95.3966255976609
95.4151720227437
95.4179229165495
95.4302767095419
95.4371490239681
95.4128897340017
95.3915278625526
95.400361617327
95.4169929701599
95.45051800321
95.4424502716481
95.4259909746891
95.420134264912
95.4178499480371
95.4199818726717
95.4411399504561
95.4962901082229
95.559998804288
95.5299900746735
95.4638565700486
95.446709541744
95.4669458086095
95.4825153349684
95.4474045942679
95.4318669901646
95.4708074928654
95.4794623689864
95.4548186510817
95.4402898469903
95.431191502025
95.4460114013981
95.5061361772396
95.5620896049738
95.5661312238992
95.5118677306133
95.4673662302526
95.4192228138376
95.4279260777682
95.5181130523198
95.5693977999717
95.5379721685519
95.5322090523131
95.5168431118369
95.5009315079777
95.5258405657588
95.492701954678
95.4159374229239
95.4131203405658
95.4648285291676
95.5119061960512
95.5521807521846
95.5836691513466
95.5776000723276
95.5580731931362
95.5668610360135
95.5626630288657
95.5384974372252
95.5341894334016
95.57082784684
95.6255478644293
95.605762798789
95.5770289340047
95.5510742975082
95.5471238353767
95.5964002384237
95.6098490293044
95.5752881965485
95.5695790393863
95.5912172024421
95.6182077360086
95.6642074692666
95.7118508905284
95.7090201692219
95.6666626661733
95.5971344895652
95.5674090311016
95.5924021058499
95.6247284989523
95.6603803952036
95.6613331973121
95.6240625577547
95.6150555289654
95.6674926342221
95.7108709382758
95.6822269723199
95.6619055834369
95.6806194309278
95.6827229645876
95.6880370107735
95.7106526658881
95.7413245619678
95.7483696752457
95.740972870429
95.7567178476963
95.7659722439527
95.7798084519353
95.7984072514299
95.8132794454911
95.8018409297522
95.7931245558916
95.8303684547976
95.8515700380999
95.8188956246602
95.7863752823753
95.8072688398022
95.8653294739471
95.9073571953648
95.9064406785031
95.8905663839082
95.8918227525013
95.9075979929226
95.9152634606596
95.8814798872001
95.8664654363363
95.8598541496956
95.8625346937369
95.903767081657
95.9366636569783
95.9392417781904
95.9272360128734
95.9364373461415
95.939985020556
95.9113053159322
95.9030670887884
95.9518413806358
95.9784432469257
95.9798097488588
95.9714530019058
95.9637515807576
95.9666799283874
95.9463371857928
95.9339999031436
95.9131336135538
95.9214937724842
95.9386829146877
95.9062139711588
95.8788317869741
95.904875520815
95.9245142568262
95.8929210914092
95.8710815353248
95.8881150792982
95.912171958492
95.922066608939
95.90548843679
95.8718592390048
95.8402807025286
95.8009613067086
95.7488328271878
95.7518762502224
95.781625888076
95.79770741848
95.8212313092566
95.8370814159105
95.8623877479411
95.8881190498084
95.9051834583325
95.9645443593655
96.0196290535078
96.0475214940721
96.1009458474474
96.1585409201574
96.1723142723722
96.1540126704894
96.1506484573999
96.1466205827779
96.1333545983195
96.1475567654135
96.1859293728672
96.2196016847889
96.2296538993691
96.2143299036685
96.1668854257609
96.168274203427
96.2160743689787
96.2049394211273
96.1744237592421
96.1786797254309
96.1728498244816
96.1818150155029
96.2289016231889
96.2710342469426
96.2745141778061
96.2719058000681
96.2938162840458
96.286961841536
96.2538903727064
96.2799284894148
96.3449796198747
96.350652029771
96.3232747608713
96.3380413720454
96.3471056882351
96.3326546235159
96.3703493895533
96.4202980784346
96.4129247080338
96.3750227845257
96.3813664011672
96.4600576362388
96.5259874216663
96.5556263324101
96.5710675994919
96.5830325140833
96.567000354916
96.5446503320097
96.5606504633765
96.5808729374248
96.5523645660802
96.5434899493095
96.555518276468
96.5555647274631
96.548490140952
96.5393339916755
96.5671145988024
96.5932556658395
96.5889530539174
96.5938499605644
96.5903045730416
96.5765218172883
96.5850745176772
96.6211092148905
96.6574090066211
96.6496490702011
96.6422177329861
96.6804179995359
96.7310138687148
96.7528718828726
96.7460381824698
96.7421402862926
96.7440674694248
96.7256704989122
96.7158610544124
96.7369764251509
96.7755136328983
96.7957690974111
96.798162307119
96.7977980317893
96.8009737916482
96.8171742693842
96.8225547141
96.8039008029503
96.7991940693227
96.8291148930857
96.842751830777
96.8378219677182
96.8515469370145
96.8845887646665
96.9309606330129
96.9545131907574
96.9494848984073
96.9552418642016
96.953702320734
96.9497774826788
96.9570081229362
96.9535300702174
96.9594215242354
96.9686444652348
96.9634452715772
96.9851124794239
97.0012632458366
97.011298599389
97.0436731695818
97.0416962126472
97.0292508415973
97.0492439012146
97.0596371732931
97.0543661331502
97.0634140886986
97.0929414797074
97.098986062284
97.0912318945577
97.0939821636286
97.0865985539923
97.0812923461068
97.0973949622724
97.132257517981
97.1359757430714
97.1079243830313
97.1058137121648
97.1329362975215
97.1558301213972
97.1684969259683
97.1761004083147
97.1753063793282
97.188659944102
97.2215986124133
97.2179803115364
97.2037137266703
97.2254550579715
97.2300882251864
97.2151074885869
97.211747567204
97.210777657606
97.2055417964094
97.2039213709176
97.2080958837973
97.2047165763596
97.1923938582824
97.2012017613645
97.2214047434219
97.2172946436359
97.2147068202511
97.2302447486386
97.2437611690014
97.2638945898013
97.289613711897
97.292921144701
97.2895828929523
97.2924803754011
97.2937877309562
97.3156799451671
97.3458374752068
97.3656664720955
97.3688028813891
97.3583832029317
97.3605186600499
97.3795041868243
97.4009834264666
97.409535194281
97.4029646515685
97.424413400647
97.4492192542657
97.4630758137323
97.4646844592243
97.4600863395388
97.4715720464727
97.4891098992374
97.4740198986193
97.4874001398891
97.5281463511622
97.5323418692742
97.5442037011453
97.5888629884073
97.6150135382394
97.5980819824194
97.5732167327177
97.5962378238444
97.6352829905833
97.6249155848019
97.6263329811375
97.6511071424724
97.651227750062
97.642874771472
97.6419830322774
97.6624100896228
97.6656116785221
97.6674415465198
97.6779033217909
97.6656686839972
97.6593715794141
97.674030080642
97.6603222537621
97.6447523226733
97.6859160987391
97.7261489101086
97.7030751525526
97.6922259064587
97.7295218073111
97.7277233372954
97.6689074310774
97.6552818848604
97.6857979337197
97.707204972263
97.7172173656027
97.7158964530355
97.6815351227221
97.6752982336499
97.706324939149
97.7198086433383
97.7176977071186
97.7188419664367
97.7351444078892
97.7431379825132
97.7373880172884
97.7467035320264
97.724852821337
97.6959877351222
97.7331558234631
97.7748181889875
97.7600750355093
97.7499367881159
97.7682586835949
97.7461297207914
97.7192660976884
97.7429265746431
97.7608574962505
97.7736318258327
97.7869168103154
97.7671610551085
97.7571498953785
97.7894538959019
97.8122088780967
97.8235808388251
97.8277558564044
97.7925579441896
97.7558317734435
97.7714123520453
97.7921579099657
97.7867129942995
97.7797785136366
97.8075748572743
97.8312718910457
97.8146584194087
97.7924320372417
97.8009382571811
97.8303535318495
97.8409467263997
97.8568329542598
97.8577810346997
97.8490088503283
97.8659948390769
97.8695282001212
97.8457241408508
97.8344131290997
97.8572589084098
97.8889710713308
97.8982592120142
97.8821246092692
97.875261140649
97.8904413994352
97.9039382230662
97.8914610476196
97.8656064195439
97.8664509427276
97.9119715584035
97.9509735486393
97.934131215039
97.8952135693758
97.9027685501619
97.9408498865678
97.9393779007667
97.9239578757972
97.9452885891455
97.9483093662243
97.9184859094944
97.9215820522346
97.9456188356164
97.9480592710698
97.9334315471311
97.893752091578
97.8750914237895
97.8703351411287
97.85489924344
97.8749480944122
97.8875387532067
97.8468656787719
97.8250647483524
97.830208862491
97.8192435804592
97.8417782346689
97.9003062714481
97.8959660897856
97.8822374512608
97.8954856947291
97.931272040398
97.9838071801656
97.9990604488205
97.9850517492139
97.9676635132639
97.9972394199268
97.9892618353987
97.8913985724422
97.816244854419
97.8131822260192
97.8265364550237
97.8839135214553
97.9200771433633
97.9210169177199
97.9400937452122
97.9400882640551
97.9155077386184
97.9467335058937
97.9541461717125
97.8789644515902
97.8441658516123
97.8606159968806
97.8561542625145
97.861706843537
97.912015252583
97.9240274518069
97.9094585408988
97.9292437876305
97.9491139897106
97.9459930744381
97.946794499062
97.969296110947
97.9964750828634
97.998557264554
97.9876516299515
97.9949778394676
98.0107804514033
98.03544526383
98.0300566305064
98.0258702051426
98.0766847326932
98.1049319773741
98.0960814297899
98.0906290240203
98.1172550227331
98.2038941993693
98.2256443771121
98.1818751903482
98.1823949569819
98.2094369232655
98.2728857603085
98.351028826447
98.3534539991593
98.312639613073
98.3157320295081
98.3858093272068
98.3964087631281
98.3276236952251
98.3524429042178
98.4122336490041
98.3878410797616
98.3621885912988
98.4031049196485
98.4530658205577
98.4731761866926
98.4757844450341
98.4660115884004
98.4474142802174
98.4322377841154
98.492445548177
98.5526250224724
98.5198198477926
98.5488725913292
98.6367196924356
98.6615636251923
98.679465817635
98.7074333373501
98.6637964280853
98.6103456194683
98.6496625956193
98.6803270915422
98.6635043161777
98.5809655740559
98.5777624593521
98.7123437640793
98.7743929028732
98.6993053059543
98.7020455521271
98.7936121075475
98.8591166880692
98.8897786952514
98.8332127623686
98.7991779500619
98.8961673115627
98.9681848358134
98.972414050229
98.9159176372794
98.9247679738545
98.9991274473896
98.9214262030958
98.9375706670707
98.9587008117685
98.928317042898
99.0774540396421
99.1051302746709
98.9939841057073
99.0193355781333
99.0889292441636
99.1282001734966
99.2726711240897
99.3816093943113
99.3700492801285
99.2603889989625
99.0995723476729
99.0305257280373
98.99836911933
98.9474282443785
98.985198579143
98.9768942274675
98.8761793344569
98.8120522670044
98.8613566380566
98.8647579313805
98.7805474429684
98.7030795068152
98.6210793408456
98.5470463570241
98.539205779857
98.5669611928947
98.541545098308
98.4590052402691
98.4657387587404
98.4801027057388
98.4243234455995
98.431578253821
98.4935329362132
98.4415868313764
98.3775088608627
98.4165159360732
98.4714413218299
98.4621773224723
98.3905154224908
98.3801635235515
98.4571291410751
98.4967972696482
98.4855569694396
98.4405304591238
98.4021136243641
98.4057103477499
98.3973849463939
98.3294052389212
98.324711716607
98.4285874552073
98.487449646238
98.4339766801831
98.4376332666139
98.5080359377158
98.5460486468962
98.5047212545394
98.465829595355
98.5032804034758
98.5478440160614
98.5522579702127
98.6243647808154
98.6615639796266
98.6281950325073
98.5789141407299
98.5334287724287
98.5451315516231
98.6742328142425
98.8220426568868
98.8494740827676
98.8152622558887
98.7891977959547
98.7058146016108
98.8317075713208
99.0072501177198
98.9011599736881
98.8754668676222
98.966301234717
98.8295406554543
98.8228612323311
98.9279528096723
98.9145495820419
98.9436577994497
99.0638303641384
99.1103773029636
99.1319498670567
99.0881591547302
99.0035779099004
98.9092712711051
98.8439822865249
98.8553848870352
98.9302005851615
98.9235029043787
98.9266770349999
98.8964969948677
98.8004372000423
98.7339762373924
98.7810162797544
98.8587666745006
98.8213406762723
98.7321362869822
98.7240731099254
98.7915485156914
98.9055163921679
98.9815732742614
99.0332386745067
99.0094996274417
98.9689535336326
98.9764483770793
98.9895601686223
98.9159168672549
98.8752802411562
98.823465982797
98.7333795139275
98.6928567881341
98.7507015344859
98.8007922216208
98.7663008264506
98.6547956722849
98.6448696675104
98.6493471207166
98.6047740706813
98.5877794343608
98.588758834887
98.5766806380539
98.5795547700243
98.4918382416573
98.4074926503104
98.4174326258184
98.515841241268
98.5390925110186
98.5177529719741
98.4491384436588
98.3896361468869
98.3474626061472
98.3543303299365
98.365511940511
98.4058781101907
98.4082952998022
98.3446369745085
98.3066403997512
98.3583978350987
98.3991330973456
98.4040093026461
98.3988253620094
98.4009415512413
98.4111987026634
98.4254211370304
98.3717802497078
98.3542744825044
98.331786581608
98.2964930580444
98.3038441389429
98.3390658899114
98.3687876142694
98.4144469849985
98.4124040267114
98.4107201909656
98.3871289547363
98.3476631474459
98.3224103574545
98.293722526377
98.2336659071805
98.2795008634639
98.3867299723792
98.4142027889253
98.3729329579543
98.3529214399677
98.3326126360233
98.3159295595339
98.2783046169913
98.2933259314975
98.3231859447299
98.331129735242
98.2262134082773
98.1399718315785
98.2285897996982
98.3236663831144
98.2743039066768
98.2454639301185
98.2583845363096
98.2854802613634
98.1864633319151
98.1292880373058
98.2033567702281
98.2121015722898
98.1525537345504
98.2043024416289
98.2704701770679
98.2560063290673
98.2118787943294
98.2063071946999
98.1740572764211
98.139238908558
98.1401673247887
98.1661854959368
98.1985820233043
98.199591260848
98.1461801428664
98.1349194202254
98.1841981841287
98.2121691001708
98.1327499447589
98.0451565694961
98.1172950776674
98.2481398724349
98.2249335152626
98.1703627927703
98.1632202409537
98.1333030832076
98.1481559648407
98.19145237133
98.1571039809705
97.9853563322437
97.9277104473671
98.0336889729211
98.0821107659751
98.1247049713236
98.1206991199562
97.9952586193194
97.942469195051
97.9266480261647
97.8739006085189
97.9360627933183
97.8986812754816
97.7134268127769
97.5797605680847
97.6394819672891
97.7109874157327
97.6951393045095
97.6051965668551
97.4926283791313
97.4902436152394
97.3838060137015
97.1093715189506
97.0310113664392
97.1549794000059
97.1212181960638
97.0140544165201
96.8598761517126
96.655336905676
96.5292447069742
96.2826285742815
95.9920039770504
95.9218136026478
96.1531287831857
96.269864576236
96.2581459968322
96.1438633635705
95.988028709398
95.9450673880063
95.9572873346365
95.7457373679591
95.7873233309996
95.9153995263972
95.9512163505575
96.191659334854
96.2222286270751
95.9920235851958
95.8159180601859
95.5010632955389
95.079261276376
94.9883903701559
95.016989441822
94.7206270391862
94.2021971705638
93.70217734943
93.3062584411309
92.8434398898762
92.259271059149
91.9079922743009
91.6149451545416
91.087318719747
90.55141106474
90.2208690794275
89.9388524035881
89.5122115387852
88.8151625339548
88.1884885212631
89.0326966780822
89.3652689496619
89.0719415915488
89.4462073769723
90.3451555792606
90.776332311608
91.0305293288166
91.0933365397884
91.0040571764186
91.5986735008724
92.4386282658267
92.565250683058
92.4183751352269
92.3702370726214
92.2856968946293
92.1333987003161
92.1456244813166
91.9556062921491
91.4371587103729
91.0121088094514
90.7153073698569
90.1107016961424
89.2746390337616
88.4384425853214
87.7427005414104
87.1700892420026
86.7037908587678
86.3321991924219
86.0430691916451
85.7405681536146
85.4177030349479
85.1137552860438
84.8734760182044
84.6343062947035
84.4534109944579
84.3215536468229
84.2636247045618
84.2681563275343
84.4123555350866
84.3910388400853
84.2265157873416
84.8356466482804
85.629845860684
85.5622030594526
85.4279135288716
85.720330804819
85.8002032418466
85.7122491699893
85.3575755855658
84.4615980589713
84.1604638651244
85.3698581507533
85.5897373414494
85.4644414869543
85.2112747987668
85.1556349020625
85.1445775163539
84.9091691400704
84.6974044667838
84.5168231757442
84.819393166593
86.429798847509
86.6903345298742
86.3692976650682
86.7104564613932
87.291004096959
87.4265783224124
87.5238962193998
87.9042170368427
88.0476555990299
88.4377608464658
89.2525750791739
89.5558922577146
89.9683334368022
90.2760993337206
90.2926596610237
90.0994061979916
89.6076692814659
89.8242949444061
91.2339612135771
91.5167025966673
91.418394072878
91.3793069460517
91.5965551994706
92.2694776952181
92.6401215396486
92.5250970393311
92.5409775739423
92.9597560803061
93.2958810487033
93.2910093595132
93.1140145433329
92.9608766373707
92.7446768340071
92.446154845223
92.1115922495302
91.9623112072614
92.2998188412366
92.3980641994831
92.0682838325664
91.652778468975
91.4360169110257
91.0171728501088
90.1821490802135
89.1039366264536
88.4727480115953
88.0204818291649
87.2511103817728
86.2884620758392
85.4091276372403
84.7480618912852
84.2675086510154
83.7580098073843
83.2722782920101
82.6955175575681
82.049036891841
81.9333412442975
81.9499936972609
81.4914686773796
80.9078485561584
80.4979233172028
79.920618062899
79.201733929682
78.5549194406566
77.7962003567741
77.1173522750883
77.0600932904636
76.9592861299381
76.6097266558704
76.3203801599705
76.2843498686891
76.319127135236
76.3431006267127
76.7107943295426
77.0964618746615
77.1358454230479
77.4452926089077
77.8731321061578
78.3930043492396
79.1559894028883
79.4974422619395
79.3899957168129
79.4989143381846
80.1059218853379
80.5688884620612
80.8788464979151
81.2438421697379
81.7008913364486
82.0039365063165
82.3995149536965
83.1231122100979
83.6017688222658
83.9240243965158
84.3733477190592
84.6300126885398
84.8425693444105
85.4432664100137
86.0259670311485
86.2983331419369
86.4195204664256
86.535529787529
86.5932339409334
86.5853506682946
86.624939661288
86.7291137539101
86.918833459824
87.1128872559267
87.262906799135
87.6417080154574
88.196954607823
88.6032883930002
88.8501270835998
89.0593204174525
89.2974702914683
89.5662156994448
89.8241669779959
90.0616833293304
90.2693353338571
90.4452900224425
90.6614944029539
90.8925050215429
91.0472835688988
91.1752624501231
91.3090467137181
91.3949613668044
91.4683588353501
91.5760425284593
91.7092974325639
91.8697336608633
92.04502594548
92.1906754542005
92.3222245380881
92.4380928487671
92.4995183084458
92.5106326331448
92.5270014739603
92.5672261141118
92.589852224479
92.5924501085952
92.5984424367668
92.6114706989532
92.6338271656257
92.6574755081232
92.6784357752444
92.7119563588232
92.7746174551533
92.8431420377284
92.8935838393552
92.9160808677716
92.8989632874249
92.8569468405504
92.8097306085176
92.7386179000971
92.6802618575798
92.6723037293458
92.7142936769109
92.8048595405987
92.9479917089807
93.1100558549294
93.2732363677651
93.4137250512295
93.5330480377921
93.6415175739968
93.7379009426885
93.8169269554646
93.8786297667793
93.9228978490817
93.9325316583218
93.8835282665821
93.8053670562434
93.7563121181641
93.8078191123312
93.9670443916685
94.1607556452145
94.3141628208831
94.4189110735842
94.5210043738716
94.6515906863417
94.7947550715997
94.9297576465527
95.0587151665792
95.1816611045551
95.2707191387267
95.3265276323823
95.3483744257023
95.3189748042878
95.2125883363787
95.0309815859835
94.8001273802766
94.5738930803619
94.3744557594798
94.1853442369139
93.996249796297
93.8627913433359
93.8569988324737
93.982512874296
94.2121268622237
94.5369184266771
94.8686381404775
95.1170963626832
95.2535975254617
95.3127359280252
95.3237019332787
95.2851737950957
95.204391056129
95.1038043037961
94.9927452977309
94.8749315584212
94.7635934786926
94.6827888260965
94.6326586436634
94.6027501958258
94.6005288879365
94.6474723777481
94.7280446598991
94.8228301962747
94.9197349393352
95.0228691180574
95.129637270601
95.2338888228514
95.3217583474546
95.3890190810589
95.4263652021151
95.4165326441429
95.3752263304343
95.3208139294259
95.2472930616984
95.1615327715339
95.0652927902788
94.9470533913206
94.8039497785243
94.6325743682128
94.4169308047008
94.1610496908751
93.90229571988
93.6950824199409
93.578642260376
93.5840812605015
93.7114494110062
93.9262315510129
94.1654361142213
94.3873183975871
94.5929069384214
94.7729501397877
94.9078512153634
95.0208226380355
95.1233481405566
95.2122481428283
95.2843618740646
95.3253812482951
95.3338901444072
95.3326192921833
95.3227177987926
95.2971006792692
95.2480684374682
95.170606490693
95.074596244876
94.9933672801946
94.9259692903229
94.8577620709484
94.7962049279451
94.7416272187799
94.6926614046612
94.6630330663776
94.6626493297573
94.7052394179636
94.7818806292507
94.8677965437972
94.9390457784569
94.9744469381766
94.9584969767769
94.8915134894755
94.7820066107703
94.6309661459977
94.4221113559968
94.1413405337387
93.743302683127
93.1559073580278
92.4563957472068
91.9297683685812
91.8788911259811
92.3116596717474
92.9211002156203
93.4415219511055
93.8113508691471
94.0676428971507
94.2510346552561
94.3636327504052
94.418868341652
94.4325534770838
94.3853321627091
94.2225664716257
93.9392095121399
93.691368699928
93.6560852416657
93.806269799121
93.9599737321411
93.9760124103857
93.8181180224044
93.5924361837253
93.4690028091647
93.5566735478209
93.7773106777019
93.9763986448165
94.0157864082537
93.7960186652012
93.2496801095938
92.5016942818251
91.8488185721832
91.5560394779189
91.7174719197366
92.2476993147547
92.89778130629
93.429230337385
93.7816254039452
94.0065896704984
94.131121192634
94.2082318119835
94.2642898800962
94.3319534404782
94.4183782782227
94.4854868782369
94.5259032256725
94.5493401672847
94.5601604340636
94.5697411985208
94.5797756439988
94.5795875437636
94.574122787237
94.56032622385
94.5460736608923
94.5356527655935
94.5209324542904
94.5132456711878
94.5050801383941
94.5006416597551
94.4951817221965
94.4911669626402
94.4820332898107
94.4639906231812
94.4285212751315
94.4090117131805
94.4135156151867
94.4056460458118
94.3582703817161
94.2927824776404
94.2338042781718
94.1634269171851
94.0644984534772
93.9465033302051
93.8374340537904
93.7217070459283
93.563955053147
93.3837313434475
93.2632125558244
93.1656479847341
92.9913037469796
92.7792478131464
92.5439628725254
92.3067831814136
92.2020819770113
92.2586866749015
92.4044991673563
92.5998821982537
92.7989007048052
92.9989747202488
93.1404194488697
93.1609010703007
93.1408613439811
93.1096572035795
93.0292272424649
92.8974438267218
92.7561015337505
92.57708470276
92.3716734043915
92.1658874211285
91.9258434578918
91.7309360861015
91.6041121883384
91.5205548857001
91.4850717128656
91.4398735764211
91.3713685464639
91.2234190604369
91.025885891327
90.9258913458373
90.9057959582343
90.9029165629025
90.9367946926881
90.8962390002563
90.674514326059
90.4074626904614
90.1864003960201
89.9529281778633
89.6256710609637
89.1420662325765
88.572019517457
88.1001496857757
87.9176364631053
88.0340110257804
88.307485904076
88.6059405223335
88.8959751022782
89.0247568559161
88.9841870266468
88.8330041225162
88.6586480275703
88.508713007786
88.2677329716598
87.9158923869164
87.428983676249
87.0030791952967
86.8105909887493
86.7543222514361
86.8334960661444
87.1037076605951
87.5741059592789
88.1322129394101
88.7694973726293
89.3008349667113
89.6461229640039
89.8336534313432
89.9377808449823
89.9618195484149
89.9582765645531
89.8549135145153
89.6942762291081
89.5602385734361
89.3433951627599
89.1109364483691
88.9407214217856
88.8726293018297
88.6869507821302
88.4054789551724
88.2308564920186
88.1030235344039
87.97327944965
87.7855625272492
87.5795328357254
87.4453842453629
87.4342045184587
87.4054204032716
87.2896898003422
86.9413803312281
86.5080962225965
86.1841838058057
86.0247410468372
86.0768370373481
86.2324388469776
86.22513552632
86.1426852207527
86.0440385059193
85.8892746225158
85.4377593029395
84.8206894231511
84.3180367106804
83.8484195887431
83.3080821378374
82.9576418423875
82.6510410184387
82.2917068627432
81.756296116831
81.2592975715711
80.7882530958405
80.5149811256845
80.2044079980532
79.7348841011075
79.1014685848082
78.4428409143007
78.154974308371
77.4605926122235
76.5343460947132
75.9865253985579
75.1049820363568
74.1565053914126
73.2860017463468
72.6459952186079
72.3531938527462
72.6880061533301
