1798
3999.43349933624
650.420452594757
1
128
4
99.1829926337388
99.15941351398
99.1219197031246
99.1253808890854
99.1692995158177
99.1693388340151
99.1580681801469
99.1677911300605
99.1280705196508
99.1390821825903
99.1605734421497
99.1419404415734
99.1373104100781
99.1427282321823
99.1332210691395
99.1627944124807
99.145071798406
99.1257793185119
99.1332898020864
99.1590551171042
99.163552937842
99.1541649953402
99.1496688648838
99.1857989114874
99.1723150692029
99.1306118957623
99.1240053438201
99.1270692067545
99.0542793693805
99.1121662691513
99.1648828265013
99.1417760812691
99.1550587709897
99.1029645538453
99.0364862051618
99.1014806536305
99.130421715099
99.1104515180992
99.0668315574831
99.1255782694781
99.1129386219492
99.0519726575071
99.051700118549
99.1180214887303
99.1689409265928
99.1833052119225
99.2120948255658
99.1820037452228
99.0685932635082
98.9593394750142
98.9826233495469
99.0285543176279
99.0950017683873
99.2292146810016
99.223109482218
99.1252272553658
99.1013470522859
99.2171797581727
99.1931604520054
99.0419921294699
99.1422771960158
99.1015110882763
99.0437241240306
99.2038009577202
99.1921686643806
99.0516825281887
99.0759822805777
99.0109337056572
98.9975542269928
99.2411145623356
99.1074089184464
99.1357363803138
99.1678739197754
99.2027530818311
99.1050841837501
98.9818593418181
98.8311056510455
98.9329889992197
99.2168962787377
99.2805629564683
99.3078980472109
99.2352634009308
99.1748707104972
99.1099958043933
98.9981192577989
99.0516797766486
99.1880328548041
99.2242474170033
99.1542944632919
99.1919861102473
99.2193229043877
99.1988268271786
99.1874752471491
99.0183722164271
99.0047918600179
99.2414425690211
99.1437690588965
99.1276810282035
99.3597124889007
99.2688750754624
99.177558611472
99.0856481014672
99.203528544733
99.272968836056
99.0700830843569
99.1435864456332
99.2702380512246
99.1798924655627
99.251736181543
99.2449894224789
99.2329068338657
99.2462878184149
99.2475820047349
99.2315069900173
99.2306285001858
99.1821316300264
99.0914521958834
99.1787781589681
99.2920293148113
99.2702045684889
99.1917642135845
99.095713566752
99.1641699787584
99.2047730385907
99.1812494505549
99.2208676760978
99.1156711292168
99.1079650110528
99.1884753547155
99.1924403926019
99.1349583812983
99.0364474581278
99.0976216616115
99.1132293784937
99.0764709973034
98.9517367360202
99.2849838181822
99.2397366866317
99.1335634172414
98.9832948325313
98.9855677882604
99.1816470977128
99.2307833256805
99.2937195732672
99.2027343663816
99.1384167743503
99.1573209982432
99.1004470578631
99.1776057797339
99.2616380602403
99.2562465055882
99.1703472578881
99.0999876027499
99.0968408825223
99.1859778879383
99.2592209576364
99.2415063919725
99.1783632785754
99.1671007384948
99.2474306544327
99.2325236235284
99.2084696068274
99.2291477289421
99.1069017131678
98.9669918581094
98.9522434493615
99.091813032281
99.1731209344823
99.1400029346167
99.1057447738968
98.9792317692653
98.8714932425998
98.7183963533346
98.8734692404448
98.8001583874671
98.6131635034378
98.7332851628307
98.7890255932262
98.7734020446513
98.7256339436194
98.6386634898305
98.5613083457296
98.4057896633956
98.3262952045666
98.3385902932902
98.0805215806892
97.9375867575534
97.9827237740813
98.1114634548193
98.140619061341
98.0463549708927
98.0896866978972
98.0982316831088
98.0379555636239
97.9274354423054
97.8019826634119
97.668374862537
97.4861953354892
97.7202937004241
97.8465657100403
97.793367439133
97.6458554615582
97.5399400970129
97.608273308338
97.6486994404021
97.545367427047
97.5462541828303
97.5674613064889
97.5187570716227
97.5575846064133
97.5680738737109
97.5280215652692
97.5048127489376
97.506703440665
97.4984113043262
97.4266474808549
97.4194656030454
97.5147676647742
97.4730732696472
97.2762080923756
97.3343681467222
97.4826104398584
97.448870855937
97.3990943226525
97.3859595403128
97.3268215137249
97.2889016266219
97.3158027967527
97.3297676516175
97.2673784656852
97.0970677281082
97.0579297683222
97.1603832438437
97.172176053073
97.1572394033096
97.1695144723045
97.1786564092047
97.1292399739719
97.0974791639645
97.1416756369982
97.1132466524698
96.9607113963896
96.9274808666071
97.0037393192669
97.0215416549453
96.9414393702452
96.9035205572484
96.9110431225296
96.8947596102986
96.8169996568237
96.7790246314121
96.7274535677469
96.6281103758455
96.6069170083105
96.6182921918031
96.6261354423076
96.6241551250488
96.6028731714311
96.598957294582
96.5993122711978
96.6174157059589
96.5697978430478
96.5038655207352
96.4658322310572
96.3781353060976
96.3351216710543
96.4216425186023
96.4674712820923
96.4151700532405
96.3784962312793
96.3654675732818
96.2891757360446
96.249243982692
96.2641374114421
96.2418193062397
96.2038153863069
96.1957065425052
96.1659529768955
96.1295042340455
96.1172755307965
96.1186472365826
96.0853193449402
96.0446686304177
96.0053455343287
95.9798948185499
95.9618573328817
95.9295658587978
95.900100835656
95.8950932297091
95.8893293434827
95.8775643406458
95.8272907841496
95.8192902557059
95.8010708839902
95.7290009865117
95.6688297657792
95.6778870926457
95.6460614612544
95.6109805499921
95.6020469399438
95.5995719290321
95.5427400200369
95.515526636289
95.5015933127245
95.4780068337148
95.5073308565424
95.5383808536875
95.4731205093728
95.4089049014889
95.4013041336103
95.4207795109236
95.4060766724525
95.3525203103872
95.3553802265989
95.3679325135819
95.3797302599136
95.4341206473279
95.4089602418784
95.3685685165471
95.3843883670833
95.355288385672
95.3027297035486
95.32947657546
95.3464990012961
95.3102271426647
95.3436052329382
95.3938262637438
95.3532290327485
95.283005507838
95.2790161427108
95.3337250264604
95.3251474313802
95.2507028400726
95.2367675932428
95.2383296964626
95.1949985485039
95.2047604601735
95.2423854248783
95.2538370497994
95.2602544111918
95.2371897801916
95.1970893332324
95.2018500290845
95.2084148358522
95.1884858424939
95.1555968431303
95.1395590108606
95.1588200889855
95.1871657984462
95.1595694736672
95.1433920213468
95.1276371059329
95.0949377193868
95.0729572000931
95.0432310571868
94.9958324400918
94.9768395013453
94.9431700137303
94.8382687218057
94.7555264723299
94.7225652749265
94.7005847412882
94.6774764288434
94.6443185428814
94.6342813385478
94.6425389124109
94.6326603226758
94.5808449208345
94.5556905100929
94.5961715202869
94.6484063614641
94.7047977886188
94.7769972919821
94.8491122954396
94.8856948716881
94.8477829989758
94.83331419045
94.8686301476828
94.8720139001379
94.8618352439854
94.880763735106
94.9073734533786
94.9281830422091
94.9210453115114
94.8968605445447
94.9065350400937
94.9146756890104
94.9114695194166
94.9244915564141
94.9454560264835
94.9763993568999
94.9813349190236
94.9522780404342
94.9321937294405
94.9367650475005
94.9702906971892
94.9860458013447
94.9540754216771
94.9497502243351
94.9703952000057
94.9407198220044
94.8877827248809
94.8923271009794
94.9201658704203
94.9371647927074
94.9384995989994
94.9232118301366
94.8859971869617
94.8344742996203
94.8193992019897
94.8709759699971
94.951047150637
94.9776062591687
94.9822448685637
94.9947335587947
94.9598266493528
94.9083229603447
94.8835930459089
94.8819145338526
94.8764811797298
94.8765865490985
94.8783353570284
94.8735199107171
94.8460589177114
94.8250537976269
94.8481842797028
94.8658551795329
94.8243308165939
94.7940223612554
94.7826149052119
94.7784189604122
94.7803550424464
94.7674303545967
94.7540909068998
94.7672542087661
94.7620857917223
94.7520391808821
94.7484081227835
94.7402291810929
94.7506330433852
94.7673718031461
94.7801018801429
94.7991632731344
94.8277942482012
94.8353731452106
94.805872255235
94.7763258668272
94.75765629704
94.7329394890043
94.7145951442046
94.7244147168846
94.6938600343209
94.6628977183902
94.7228532503501
94.7994953549027
94.8075873205386
94.7982616787896
94.7954295073065
94.7631604258903
94.7206762926363
94.7162989927492
94.7388679838138
94.738773770235
94.6739702497205
94.6328775036796
94.6420253080374
94.6465438971742
94.6121907213527
94.5326449286479
94.4327780107373
94.4196808146836
94.4950079526062
94.5661271638185
94.6382679207876
94.6909614969681
94.6334791244407
94.5902613450893
94.6352359054699
94.6636593649204
94.6359965656223
94.5651609692139
94.5516337092792
94.5992864881823
94.5766168289826
94.5092224680655
94.4411943512168
94.4224032190576
94.4495667974743
94.437201989191
94.4230529721775
94.4534034973078
94.4686352862428
94.4579402318995
94.4965718025261
94.5143666896405
94.3986699747021
94.2193334302744
94.0789266942849
93.9839921964065
93.9664802825145
94.0238005937462
94.0583787300001
94.0578311418276
94.0356029652415
94.0360674845439
94.107719850005
94.1866381004843
94.2242683589308
94.2583790904405
94.2844567356468
94.3075016232352
94.3542419296012
94.4315468273012
94.5218082237515
94.5725489988553
94.5500036095568
94.5154888283788
94.5282912294281
94.5735566622184
94.6215193705155
94.6351340425278
94.6304898956961
94.6495172837467
94.6591306247029
94.6858729203219
94.7433853225757
94.7859919617869
94.8294273997666
94.8959301567644
94.9919847257442
95.0485563436609
95.0349244959037
95.0005652850506
94.9919671192868
95.0117552993404
94.9893884511764
94.9852979254412
95.0105693100994
95.0269228706095
95.0855309890458
95.1456735349141
95.1495480210953
95.1381336659595
95.112119907153
95.0587507220403
95.0486526523172
95.1002974863538
95.1302778274224
95.114617456414
95.0986528403221
95.0974724963851
95.0854339751876
95.0802580596035
95.0915410751244
95.1054121146052
95.1097598688019
95.1024266223132
95.1022094992146
95.094193276083
95.0629042058854
95.0618138675493
95.0961411564107
95.0781280357323
95.0462068895046
95.0781272851378
95.1235239593558
95.1213759403697
95.1012740720253
95.0772426103104
95.0216963523104
94.9624008569511
94.9208917758167
94.9155096329514
94.9394866595987
94.9518405976224
94.9578074267462
94.9664577494066
94.9847772167574
95.0460434106769
95.0944523833987
95.12636393516
95.1916397795126
95.2776959103295
95.344335066153
95.3751469444901
95.3983002955286
95.4211228981855
95.4420970496373
95.4559294126786
95.4512427799055
95.4405566306918
95.4658005520741
95.5040785300692
95.5193293723953
95.5311026488601
95.5362185792317
95.5376807835985
95.5328908816551
95.5571619532859
95.6078181541208
95.6021412080662
95.5562549723139
95.5301914423969
95.6032607987623
95.7226421791046
95.755017157758
95.7490726818798
95.7720768427023
95.7719883201242
95.743191041353
95.7721850268353
95.8407446422196
95.8799300224325
95.895290785572
95.8903266918869
95.8600586464235
95.8457857215722
95.9198515951225
95.9964214746452
95.9708130995029
95.8755121168129
95.8898358737213
96.0585139507348
96.1698252232531
96.209340049707
96.2320820762798
96.2158532545747
96.1961427675483
96.1655493846934
96.1450304991201
96.1520666380788
96.1634261039155
96.1608223930204
96.1538488434439
96.143313713318
96.0968026690069
96.0540087242701
96.1028894283393
96.1898176272644
96.2037351675927
96.1815229196783
96.1567107137372
96.0965706911331
96.1026579047583
96.2073006099196
96.2752980677361
96.272316308659
96.264734937327
96.3217308130085
96.4127686486723
96.4370779705314
96.431168545408
96.4366305325414
96.4169034414448
96.3614462114308
96.3395758276473
96.4226043621857
96.5314622625978
96.5541176924412
96.5289484258515
96.5178088142295
96.5410354704168
96.567060306933
96.5455559727299
96.5186353123619
96.5538301865492
96.5941701128553
96.5804376451382
96.5551826204844
96.5469913930213
96.5910834697829
96.6991415732652
96.7513950997013
96.7412125860686
96.7311240785379
96.7070228672776
96.7108374324438
96.7448669707789
96.7575537457002
96.7661721686333
96.7613269962617
96.7396017960712
96.7666694500826
96.8245665914487
96.8681110034469
96.895082620313
96.8838639836659
96.8746768691742
96.8816036846241
96.8599883072878
96.8467396543325
96.874010703479
96.9024643740393
96.9255047577941
96.9344497953857
96.9348989544343
96.9346576756877
96.9503156941092
96.9855596203973
97.0157442927095
97.0143281862896
97.0089473281263
97.0422821880946
97.0669093174648
97.0621936945456
97.0554450043104
97.0591581417827
97.0971466771456
97.1384769281965
97.1582283391216
97.1729465988736
97.1773868639332
97.1697780221939
97.1734441608022
97.184319118342
97.1741631505441
97.1575268590313
97.1482526396145
97.1271114801863
97.1237520526834
97.1312626373399
97.1355344792334
97.1424416339768
97.1507451207969
97.1517546699542
97.1611504321962
97.1708261188351
97.1708356376962
97.1787880200074
97.1932235650946
97.2210239396295
97.2570225866252
97.2809648900769
97.2766967016833
97.2680422385091
97.2951293131619
97.3220413893551
97.3471925203039
97.3750006081354
97.3579047659904
97.3295547911872
97.3476402694327
97.3749321587871
97.4015696210099
97.4157721689078
97.4133428450744
97.4257341274462
97.4506045074357
97.4575582886666
97.4700757428892
97.5224842062909
97.5696300058022
97.5765507491722
97.5900904098431
97.6069623064064
97.6406875116783
97.6748663341574
97.6896995260002
97.7316008162548
97.7742170583081
97.7514032921424
97.7491846929267
97.7711003207236
97.7635453472326
97.7977477953074
97.8501249031618
97.8401281077648
97.831334686355
97.8502173046633
97.8555832361561
97.8340423872438
97.8299261483057
97.8372613865151
97.840665094326
97.8426812573835
97.857495474866
97.8625943145498
97.835641139715
97.804503963333
97.8163215738881
97.825159066701
97.8242758839877
97.8373823559157
97.8400645181707
97.8246343781717
97.8432514431666
97.8726273146978
97.8602761942716
97.854374714099
97.8645130783331
97.8475421353016
97.8627256627553
97.8929738734286
97.9216106620534
97.924349598965
97.9040431411498
97.9098856560683
97.9575500340067
97.9834382625494
97.9793092622343
97.9994095514621
98.0130599038111
97.9996286162676
98.0067669974119
98.025548346089
98.037542967695
98.020074477474
98.0138654629855
98.0431326562103
98.0580222550448
98.0475522231258
98.064239956432
98.0643624933664
98.0587480991373
98.0597433478939
98.0520402791574
98.0486993075354
98.0642805477387
98.1060354966663
98.1424228062699
98.1308216588013
98.1320561681042
98.1522656182284
98.1680653326341
98.1733516788123
98.1805365843128
98.1762680397392
98.1740814096826
98.2002579688698
98.2242391804482
98.1853650186345
98.1594078398478
98.1670721469805
98.1829003331128
98.2128233888758
98.2254244580719
98.2134764179737
98.2212960362894
98.2233185413518
98.2199495345872
98.2272600562607
98.2555413208631
98.2843549350553
98.2874242091866
98.2849508327972
98.3110374341712
98.3395325867981
98.3737042784649
98.3603395361472
98.33111511864
98.3364534801563
98.3475872432516
98.3387941106177
98.3563478001614
98.3742619633248
98.3742016703096
98.371052235015
98.3657784544001
98.3779898241539
98.4009451066901
98.3942869620134
98.3815380883796
98.3552365880329
98.3547578101634
98.371819288541
98.3867784253995
98.3840577555292
98.344402655692
98.2863554411971
98.2823134060585
98.2867553427186
98.2778691096215
98.3094005544618
98.4031362383657
98.4519339099661
98.4600442044181
98.4947155754003
98.5109702702382
98.4962642036579
98.4550054661387
98.4109020388585
98.3866833524295
98.3729781206902
98.3953734833903
98.3611556839424
98.3044980242186
98.2564110000337
98.2729446938396
98.3021602016974
98.3115263695285
98.323976613422
98.3618869460213
98.406774352806
98.418532057121
98.4000466292834
98.4045383741017
98.3872749337678
98.3166072153822
98.2068217700139
98.1765079922692
98.2143906771616
98.2737821880347
98.3209700905128
98.3043258286517
98.2960774613424
98.3397920798806
98.3757452767463
98.4066078615585
98.4264550654716
98.4315980475979
98.4385078773409
98.4560716146299
98.4586519960295
98.4709186978079
98.4868659856848
98.4736208421763
98.4539713654613
98.485892545361
98.500601070181
98.5127814286297
98.5566983642561
98.6074940825694
98.6346575963732
98.6275034024712
98.6352639892736
98.6803537476574
98.7600478981522
98.8513108391386
98.8390183493795
98.7861276457407
98.8418195114473
98.9468904096589
98.9101836850599
98.8811770546816
98.92733230443
98.9775970598677
99.0329381663627
99.0624647595991
99.0247091326394
99.0058124965162
99.007511021997
99.0676642146739
99.1604767733669
99.2019944510845
99.1825931161969
99.1920107618262
99.1842851577593
99.2006673881637
99.2176787815894
99.2823128492098
99.2923618644508
99.2072456940241
99.2049513999065
99.3009607097831
99.3409010153164
99.3689144426392
99.3722574166639
99.4712233028447
99.5475476300885
99.4539543060472
99.4372614565762
99.5742181445483
99.5246235032906
99.3946965807755
99.4482896283643
99.580946211403
99.6028000071013
99.61581949712
99.6069919293031
99.6182131500433
99.6146174791015
99.6344619061575
99.6511959252581
99.6574105540236
99.6263186839809
99.6467539706059
99.7316975293044
99.8390578638743
99.9090498969915
99.9328112695432
99.8111602287552
99.7988504597889
99.9375218397968
99.9719527461378
99.8385686720732
99.8083996309446
99.9274950248893
100.288908373148
100.479566253283
100.440489013055
100.257634500692
100.070719282424
100.023572225531
100.078372636684
99.9579454386849
99.8160843019152
99.7749893536762
99.647728241269
99.4430405828743
99.4941844780147
99.5788348474132
99.543681684607
99.4716196452854
99.4368050886643
99.3545388124601
99.2892227703352
99.2177070075537
99.1703663263245
99.1452256162497
99.1200824652836
99.0429157594501
98.9966576382713
99.0369232324145
99.1162664186405
99.162640454141
99.1765223731802
99.1124581525649
99.0770542158864
99.0291889902744
99.0289257336681
99.1126920111683
99.1883492174818
99.1825478326317
99.1483486263749
99.0805203307438
99.0962537288083
99.0824100865936
99.0404366554459
98.9887894130819
99.0063908913913
99.0606901627427
99.0900876765183
99.1033186548885
99.147829640953
99.1407781747475
99.1426643881427
99.15871657331
99.218652510423
99.2665047679026
99.3321489720946
99.3349733350725
99.2886594198385
99.2272635157211
99.2608866941589
99.2726369982146
99.2733061169834
99.2841949724267
99.4015170195855
99.3722972268696
99.294497984028
99.2523313990772
99.2570543762019
99.2369698524907
99.2291686265049
99.3139192889388
99.5668460775241
99.5746981678163
99.6235848351178
99.6869362940256
99.626712246767
99.4326669627027
99.500882731392
99.732948372201
99.7601225893698
99.60722030773
99.7269254008003
99.7949933702953
99.6591901230456
99.4824527371086
99.5200673134315
99.4642541123614
99.4804158240174
99.5456538241198
99.5468042760473
99.4572428501299
99.4167449545265
99.336984433558
99.3745599724505
99.3347292281941
99.2455937412884
99.1803993465071
99.2317424250682
99.2395508341963
99.3570418002931
99.4506471608705
99.4680490596082
99.4494178946563
99.6289176031501
99.6110818914181
99.4600592077306
99.31079284702
99.2572697607894
99.2249685675892
99.2808800267906
99.1916269401199
99.1203971895012
99.0552167427857
99.0503326822715
99.0650975842251
99.1012367866972
99.0263148763294
98.994331521243
98.9549743798551
98.9710312877421
98.9244117870099
98.9241997936066
98.7957411012106
98.6671475237722
98.6124660644347
98.6463879439012
98.5775460336249
98.5792928530605
98.5393474483002
98.4991140802672
98.4762850506673
98.5549676292194
98.5745033627244
98.5957906019911
98.6234541490427
98.6164171088777
98.5820847894355
98.6318100519177
98.6610668445613
98.6674297308739
98.6340804231596
98.6682609541504
98.7002998319829
98.7329458405419
98.7098125931056
98.6788570167846
98.622320714893
98.6774599178882
98.7108365782781
98.7404965321741
98.7154155027406
98.7155075506556
98.6704749031053
98.6493141130469
98.6449753186233
98.7073959628648
98.7152378707169
98.6475620780533
98.5279066777428
98.5418793748573
98.5854546985098
98.5962636930581
98.5461983474089
98.5624907704562
98.5680949880083
98.6025263464798
98.5644032191333
98.5732540635878
98.5316300968153
98.5107794411906
98.3594777832745
98.2734190317377
98.3193129007939
98.3981989205935
98.3819481634589
98.3758328621794
98.3517707579946
98.3302839822469
98.200646788389
98.143295457569
98.113595548378
98.0858924336487
98.0861655772039
98.1025450551056
98.0521384782701
97.9524869751658
97.9142940346097
97.9251258071791
97.8974786053377
97.8699491821266
97.8614478034455
97.9332420860374
98.0123905441004
98.0233241796089
97.976157474413
97.9774323415468
98.044929835619
98.1086113702863
98.0130796644949
97.923756739122
97.9976013912142
98.1358076969768
98.1241689968657
98.0531822558838
98.018610232904
97.9955921304911
98.0291481863036
98.0155029526784
97.9819872773061
97.8172871656803
97.7486770328098
97.7935533230548
97.8443896164953
97.8802186689064
97.813952384192
97.6793423061036
97.6038892372125
97.5626117050793
97.4851664102039
97.5010230832936
97.4056174233405
97.2437467932954
97.0382060000476
96.9971317461972
96.9681581670376
96.8575294260892
96.6632549176424
96.4463376359139
96.2806041308883
95.9493289818456
95.5335304333626
95.2139732175855
94.9418108333258
94.7141000210661
94.3652533715966
94.0071013332716
93.563060682841
93.2054969031547
92.7495160697869
92.2870081630518
91.8997963535185
91.9377929436192
92.0828483621004
92.1449315143056
92.058236519093
91.8471147196164
91.7536439258716
91.8759966758905
91.7149530929075
91.7128362189648
91.840732338151
92.0112770481798
92.3246946602369
92.5347455546977
92.4187335949176
92.2877325110623
92.0587990866602
91.674654034861
91.4811403649483
91.5413485775234
91.3360539974064
90.7662801762956
90.0758126246549
89.1235405124968
88.1686778536868
87.1927610498699
86.3357268727225
85.7617643424425
85.1165710923403
84.4095902983227
83.8938216313844
83.5618403851381
83.1437235299196
82.3993782445862
81.45820984825
82.4863726507379
83.4904222507724
83.4898058087041
83.8074790900004
84.8900857684304
85.5894369112425
85.9846530781462
86.0775550718919
85.8720652739559
86.152394019083
86.9695395951366
87.1952218064378
86.9653880054715
86.5805912693532
86.1019900556032
85.3078860068746
84.3916586296189
83.8213593030172
83.2561400442993
82.1254641591383
80.4393181078505
78.4598957532255
76.1113013879504
73.6838917129942
71.6422203416551
70.1229000483837
69.0707040694849
68.4538337583724
68.3829240930286
68.6713966420541
69.2911711257385
70.3376248286268
71.782889451933
73.4358668326699
75.0877124227544
76.3781271182397
77.3150579663207
78.0703612904495
78.946959198764
79.6512980766218
79.9125905925519
80.7527546945886
81.9733201105592
82.0779084137947
81.3121732074737
80.0455486355166
78.7482664211978
77.1357785509568
75.5770069506462
73.9066830868917
72.249017994186
72.5103023975653
72.7179481506761
72.6078959092917
72.3533258447357
72.4106299786482
72.6818339110351
72.6271123053631
72.5397399424112
72.405113044709
72.5777345400479
75.1082760385415
76.3752356370998
76.3499918021333
76.7862452695154
77.7619879575526
78.2415893884231
78.4455102111223
78.9654220204683
79.2335583616033
79.5480376953357
80.6878183706878
81.2810375217627
81.7931248246078
82.2519558490591
82.3878055207355
82.199620258605
81.4528289214744
81.1743895700309
83.1830534424609
84.1462283912905
84.3047977727342
84.2368671897392
84.1892646321627
84.2373871277597
84.1690480341188
84.0491935386719
84.7672403554658
86.6759568679162
88.6018747571038
89.6696374538138
90.0688916422873
90.2771806253445
90.3473289264092
90.259774712005
90.0587815289683
89.9210691914557
90.3538875617173
90.792516369217
90.8151748954793
90.6084710116712
90.636519885254
90.6133000237399
90.2217145774806
89.4831380315662
88.7779452272067
87.9439962585902
86.6453964724715
84.5900761524687
82.4493228924856
81.050574410485
80.6349498093078
80.2328440995202
79.2230513285941
77.7560032269162
76.0309092744326
73.7780171238195
71.4455288683677
69.0327308513943
65.9609395253355
62.3869270195399
58.957401383065
55.740162748819
52.4953537401139
49.9078424330005
47.4091963259759
45.4083712703617
44.3399901972149
43.7741313454993
43.6263854398205
44.0431194942325
44.6853368609848
45.3037005389386
46.3228729639919
47.6015604278756
48.461655694185
49.9560921622689
51.8461889275753
53.8905330449316
56.4676503646555
58.2725522130794
58.9977239269724
59.5379940612237
60.7338801569848
61.719773264328
62.2834442101142
62.7448049765208
63.2548510965096
63.522118810928
63.7320125549427
64.4543174129813
65.0347707414083
65.3459524502836
65.8671557278299
66.2261522445849
66.3468103421736
66.9168600102899
67.6178443717676
67.9627308470512
68.0953973321734
68.2926595023415
68.5619432852118
68.8650463737019
69.2819856615635
69.8158687389849
70.4761895603101
71.1755884737048
71.7721229024768
72.8048387679414
74.307534040535
75.6130165019663
76.5544686410035
77.3281823106986
78.1007773418347
78.8935588379571
79.6267602763747
80.2875018346328
80.865306084864
81.2875092213879
81.6548357984489
82.0282174538755
82.2921545910136
82.4892342012104
82.6007746108768
82.3194106920791
81.7579649637503
81.4335145713385
81.6059667623787
82.2206741993901
83.0847838259422
83.901071886395
84.4896041969758
84.8341462412863
84.9984432779377
85.0389620345601
85.008073737888
84.9802747213461
84.9690350404275
84.9276083492394
84.8865869255003
84.880890883331
84.8986333948993
84.9554029492574
85.041117687235
85.1589792190352
85.336223762561
85.5297748691905
85.6849213015514
85.7709164103908
85.7840878756534
85.7423063360307
85.6859496218329
85.6019692902361
85.5106593681654
85.4353104742999
85.3797164852569
85.3602172341111
85.4484408443313
85.6995476249491
86.1019811358274
86.5754848930268
87.0330838990711
87.4375495603772
87.7923331551749
88.1000625209602
88.368678934849
88.5504523814079
88.5540588901428
88.3040277333594
87.9516445404075
87.8118968626764
88.022296735702
88.4380443846026
88.848447866471
89.159121724293
89.4264167597827
89.7529331609403
90.1677171921085
90.6243409874539
91.0766412378334
91.4616112467188
91.7656835362015
91.983755193064
92.107388479413
92.1358264292364
92.018547726259
91.6605874201864
91.0801143267077
90.4463620932269
89.9623358955205
89.5863787385084
89.0224029830568
87.861330915882
86.0452206840053
84.489151092331
84.0772742892064
84.8275261275147
86.3541064600444
88.0675724484765
89.5005283310176
90.4704609046547
91.0324482940748
91.2722835155344
91.2558014931791
91.0198446288754
90.609370528175
90.1626145146515
89.8270917273274
89.5369219010065
89.2251486323262
88.9518946021067
88.8072650675073
88.8223365258646
88.9542292069398
89.1421729210756
89.4071554116481
89.7675102117616
90.242636497259
90.7636011943753
91.2514434538386
91.648164515575
91.9419849677723
92.1133538883018
92.1627928692863
92.112033563743
91.9982127902468
91.8403132090834
91.6879263345517
91.5490114773247
91.4146547075511
91.2559696032494
91.0307423847727
90.681850741788
90.2018259118504
89.6455597738781
89.0842053373703
88.604976519605
88.3678137490694
88.5115932527001
89.0359562692467
89.7869296834346
90.5463937775423
91.16559087865
91.6360349202149
91.9820234012879
92.2413782321942
92.4681919303549
92.6708628565559
92.7732031490094
92.7093701472254
92.4595461079006
91.9767354100279
91.278604971679
90.8034403916226
90.9667173911989
91.5304114072562
92.0637509874236
92.4306215867623
92.6781261684241
92.8500478842994
92.9446489241608
93.0013710946213
93.0351247641735
93.0886171172585
93.1692694861896
93.2703762768563
93.3830560353766
93.4940528355705
93.6074643563788
93.7109682895216
93.8073924743905
93.8851076131298
93.8840261899713
93.7078512223807
93.0782807708077
91.4686129940127
89.2193606707271
87.040616796826
85.4937684679375
85.4270095624581
86.5204371077577
88.0755594959698
89.6076495900524
90.7783340367751
91.5214026836938
91.956451322595
92.1441471998882
92.1572772696971
92.0084376054076
91.7769805234685
91.4552685474005
90.7486732184108
89.6277970814015
88.8173131507233
88.8440420789349
89.4065809798563
89.8699000861905
89.9383396830659
89.6094085186707
89.0841704270848
88.7025478916038
88.7038261212171
89.0611241837021
89.5665367324487
89.8092153034119
89.1478340331895
87.0633444391684
84.83659605194
83.871447532057
83.5219493662546
83.4479204057364
84.5375477429395
86.6744364508347
88.7013145361063
90.084013337807
90.9329916906896
91.4154666414763
91.6832066175181
91.8208356377259
91.852565622246
91.8178292814235
91.749745000238
91.6339606995096
91.5146385438243
91.4684022700563
91.553772778175
91.7249538763098
91.900095027865
92.0312578363941
92.1367059819744
92.2083200592599
92.2442051446847
92.2481227409691
92.2703514085404
92.306045076955
92.3102412410347
92.2833621636376
92.2752673341845
92.2616342032324
92.2499918810856
92.2424291019384
92.2372612579271
92.229263577346
92.2142832981463
92.2050821550974
92.1831187600041
92.1393585187395
92.0203092141501
91.8472783402067
91.6755043674186
91.498608550607
91.2313827557841
90.6749269226877
90.0899503830316
89.844520134144
89.7595141311993
89.4125842751551
88.7857770327703
88.0148825979032
87.1370624691992
86.5041794453079
86.4867574629219
87.1331932123405
88.0593218680814
88.8673395610099
89.497738168391
89.9651107437652
90.2241022409881
90.3010411188598
90.2437149134512
90.0910618698031
89.8431829606474
89.456365942864
88.9110494943301
88.2142475657454
87.5214920709718
87.0061121817568
86.7172828906999
86.6686363923699
86.7473722283105
86.8103226637166
86.8006106674998
86.6271308344
86.1531336911157
85.5315930981445
85.0443235887482
84.8118906231756
84.7578181312487
84.6063097858265
84.2058515469007
83.7384257724136
83.2824880603075
82.876436241407
82.4192995341247
81.4663505717929
79.4449095149754
76.9464235358097
75.7996482781665
76.3415438031169
77.4733884882015
78.7228385150846
79.8994540127319
80.7223747621889
81.0831423134137
81.0999772899183
80.9028473825591
80.6967826785783
80.5372078484577
80.2318929304328
79.6902784147937
78.9336604812222
77.7438986062528
76.3410196622211
75.6536329193835
75.998925057744
76.6224445649149
76.9373825204963
77.114575594425
77.7817432717545
79.0984981702912
80.7106422426294
82.1263947875989
83.0168721699175
83.393290079778
83.4516710910897
83.2880023854231
83.0584302639196
82.6150766695233
81.9418698307864
81.1702286099548
80.4394004665982
79.7580935220233
78.9712355454975
78.0725262154718
77.0219265478285
75.5321744900917
73.5454408129604
70.9911075868633
68.0539340412548
64.761305016391
61.0853338030558
57.6354722295722
56.0181058857191
56.7688043970303
58.8923088234272
60.8642498344052
63.0108929260472
65.7133757225539
68.2980367679521
70.2817691023204
71.7433680404887
72.5624686066721
72.8873772167974
72.7086217601149
71.9367964359535
70.5521006059221
68.910982608482
67.1790406638179
66.9233222283818
68.0839856903123
69.2709851817089
69.4461474422823
68.7274315517414
67.3546218200009
65.565497538139
63.503686620348
61.4430639923621
58.8919756194427
56.7191123881818
56.5191240518597
56.2317672271574
55.0560913242918
54.3382036929444
54.0730184951462
54.1794635718112
53.7809325872903
53.7634641648021
53.545209259767
53.764468028187
