1798
3999.43349933624
650.420452594757
1
128
4
98.3485927439049
98.3223565323242
98.3113157155121
98.3281979992127
98.3327200848762
98.307994635131
98.3047052465388
98.3009843243795
98.282803856831
98.2968184369275
98.3296313236094
98.3576536209703
98.3213715802076
98.2700650460595
98.2775960991722
98.3499946064882
98.3607482084762
98.2961606055353
98.2436791859888
98.3239517892329
98.3887313383537
98.3585834865383
98.3117360781135
98.3113559855525
98.3075498651182
98.2417575564074
98.1755445773917
98.2059319815305
98.1882974542081
98.2436994343153
98.3240452013609
98.3408372986429
98.3329946006932
98.2984364909522
98.247306013731
98.2554588651357
98.2952919678546
98.29620724066
98.2013510004278
98.2256670778313
98.228761267551
98.2133573187333
98.1944694008549
98.2482013314046
98.3350750755847
98.3465655862078
98.3108171941673
98.2730437292999
98.2363495302711
98.0704689307792
98.0052838781518
98.0905704825357
98.1875929655111
98.3279445023697
98.3720543227397
98.3006598009078
98.1949400057519
98.2610137024002
98.2745433282024
98.1306976562805
98.2053772456551
98.2283803776332
98.1555532316955
98.2541473023949
98.3424931572955
98.246318880277
98.2564714009281
98.1552498290069
98.0885098343474
98.2485490119578
98.143685355227
98.177873360013
98.2181437488098
98.318182145917
98.2420192224489
98.1956707590483
98.027763500484
98.0101461480046
98.2134123935954
98.3448785542684
98.4155124567377
98.3552469996957
98.2526300452907
98.162751851778
98.0767866509079
98.1180121951003
98.1515717753305
98.2398661932049
98.2785723020233
98.3370492480928
98.3094197152714
98.2747698847887
98.3305564886917
98.1909412245756
98.0363857978194
98.2221814796956
98.2006647349587
98.2414602792727
98.3817333899834
98.3453975620658
98.3711095196677
98.2795557260486
98.2735352113469
98.344263164519
98.1645353841307
98.1596384345443
98.2812494905475
98.277007084226
98.3575650343647
98.3656423288348
98.3756516069191
98.3733774043885
98.4118834564714
98.3589476366008
98.3222156465783
98.3400845039916
98.244958143432
98.2656515893538
98.3179835096762
98.3286655206732
98.3435086835182
98.2768004139028
98.3072731400255
98.2837484206082
98.2564788632191
98.3697318976341
98.3145743274216
98.2494959482255
98.2044458324532
98.2116656379548
98.1640669319922
98.1093342576022
98.1180271431745
98.1758616886784
98.2772846941161
98.0895497769852
98.2405984969273
98.2693688838437
98.3372558125013
98.2191479426283
98.1109774913405
98.162392596014
98.2369877631428
98.3569320414754
98.2788441799006
98.2276357717729
98.2555271302833
98.23438837627
98.3146091898545
98.3038567123092
98.3391763649611
98.2789660269163
98.1642479871026
98.1253036844118
98.2225915153154
98.3204176535523
98.3677705970208
98.3634659610715
98.306664604001
98.3223255250563
98.3594605956614
98.349568100415
98.3510672960917
98.1866061755057
98.0935693895888
98.0884811492897
98.2324710303191
98.305505117203
98.361898293878
98.3043383475893
98.1602600212527
98.1079054795953
97.8593725446762
98.0085060929583
98.0665442654867
97.9404703688115
98.0757164056982
98.1822436375826
98.2217261779499
98.1559725640959
98.0460376518038
98.0222361875683
97.8969492551205
97.8327935352874
97.8914633129295
97.7403453165526
97.6443088868562
97.5337307171034
97.7042616114957
97.9021949602115
97.9010894056432
97.8975247098783
97.8406009807586
97.7778465858737
97.6730773805382
97.6845992778419
97.6771196985668
97.4764706701757
97.5683050306766
97.6225080179137
97.6906735148673
97.680107745844
97.5718630539758
97.5454057888139
97.6320295177006
97.5528167409174
97.472886718633
97.5260117733263
97.5297078687117
97.5491074386758
97.6123050822092
97.6485630736309
97.6318043975401
97.5943135743753
97.5727711713451
97.5212157084005
97.5196123312024
97.5658055976249
97.4749307602126
97.3143864620444
97.3885144936096
97.5588825377787
97.5375643494818
97.5066767214489
97.5408873585577
97.5838992107642
97.5566694918441
97.4882466172751
97.428403536939
97.3852503368807
97.3208131427301
97.2932866199319
97.374126321858
97.3942148059847
97.370117997964
97.3956101748671
97.4189218113006
97.4077619049474
97.4017623391732
97.4189054011211
97.3949474640016
97.2721760897287
97.2327885147288
97.2380509346518
97.274528355019
97.301544012643
97.3079121651018
97.2980715748337
97.3017344564896
97.2516756659275
97.1839686127426
97.1064952304213
97.1376099242703
97.1607269421862
97.1348117940642
97.1353448142091
97.1210149427732
97.1419339485669
97.2022701351502
97.1845526624056
97.1565205588598
97.1364240283485
97.1013183309897
97.0965812238979
97.0633306569122
96.9946162174221
96.9954862132523
97.020659290283
97.0306001977756
97.0088809793057
97.0263967878856
97.022246726375
97.0007122584963
96.9478967007158
96.9167549514023
96.9381161479701
96.9538123031908
96.9506904248252
96.9404439478062
96.9158145143786
96.8941552496144
96.8868693221732
96.8871741819749
96.8760433535125
96.8541941130521
96.8422194229974
96.8345289478454
96.8022730095718
96.7677334437733
96.8039103642568
96.830850064008
96.7743957041291
96.7107790994427
96.6720781309605
96.620490323457
96.6411017657229
96.7388936581776
96.7270377471972
96.6731609095876
96.6255944203519
96.6229640568567
96.6476428100504
96.6382159456967
96.5716466208331
96.5987852892698
96.641199990414
96.6232750433471
96.5987615392686
96.5571372298155
96.5229764807614
96.531631252061
96.5469417950133
96.5300854660062
96.5213128380436
96.5537185121299
96.5428508276967
96.5110811103829
96.5244688494168
96.5635504961246
96.5760311714095
96.5421625930358
96.471762326785
96.4644051772706
96.5221032885879
96.5388555211992
96.4945059176295
96.4706154887111
96.4889620240706
96.4608685792457
96.4405801291532
96.4927053583805
96.5056301167938
96.4826027807854
96.4840733622448
96.5220904726091
96.5149535024962
96.4738539928495
96.4400894805804
96.4296275562069
96.4172347772844
96.4257203550157
96.4349986581048
96.4391519722775
96.426831694318
96.4245432133909
96.4479366922529
96.4820634648371
96.4832463401033
96.4529082417903
96.4107905659019
96.3988765488326
96.4194373027898
96.4295682143568
96.374097887223
96.3542105310361
96.349073456882
96.3079723324646
96.2888482740361
96.2669992844847
96.2138864650894
96.1799320638456
96.2078498505763
96.2113878022454
96.185517938027
96.1692291462788
96.145777853908
96.1640513204759
96.1768872772975
96.1800073629303
96.1811421135249
96.1929298774007
96.2083395874733
96.2151382347773
96.2161591401607
96.2216381766131
96.2288013168853
96.2508482609003
96.2457714228378
96.2696980137441
96.2905316763994
96.2683223542367
96.278544949909
96.2506316493182
96.2134381597231
96.2234531994225
96.2436419272202
96.2635331910301
96.2590912256578
96.2429510213634
96.2263842399836
96.2306898395764
96.2454547109679
96.261879562781
96.2556935133045
96.2739277523552
96.2516032791535
96.2167916708504
96.2189607989112
96.2122649194087
96.2243416825317
96.2618833360394
96.2338604186706
96.2044470034758
96.207058660974
96.22640763832
96.2680030073448
96.2900548037272
96.2585807909753
96.2145402107077
96.2110012782302
96.2084376250764
96.1865242709676
96.1903597943236
96.2067146534078
96.2189001939084
96.2031597311779
96.1732432677374
96.1588378720046
96.1960915912761
96.2191687727581
96.2109377068978
96.2153399214256
96.1703951539054
96.1296729214212
96.1409189580304
96.1263175593731
96.1069846757365
96.1151489480302
96.142656284975
96.1308535340889
96.1190101962445
96.1169437534443
96.1081632062155
96.1116067123843
96.1114442075279
96.0985547732314
96.1201189848751
96.1075543723112
96.082689472082
96.1021367413052
96.132204164849
96.1308102339917
96.1317716235342
96.1373614868542
96.1121221201702
96.0951265178912
96.0942118618573
96.106793314823
96.1200899752546
96.1057993637289
96.0860439177328
96.0675378550415
96.0821012490632
96.1126140599
96.1256455142
96.1260564583031
96.1344432192874
96.1273948272397
96.0857055646935
96.0397872627462
96.0601746392672
96.1155415265073
96.1308790822136
96.0956509307129
96.07728260621
96.061730247758
96.0531071284728
96.0283507094297
95.9929119161878
95.9602980691886
95.9660775627583
96.0024289348388
96.0381109225773
96.0650612031303
96.0984480263847
96.0979436880687
96.0896571277141
96.0780255508941
96.0654033639848
96.050823657914
96.0070714882674
95.9985980601519
96.0505915508647
96.0459192908011
95.9991627332001
95.9837020474885
95.9926258687306
95.9824533797216
95.9408910058217
95.9169071327928
95.9290389019779
95.950385009529
95.9613482442392
95.9992283111644
96.0062798287031
95.9302027462555
95.8548177887205
95.8062126595671
95.765437605754
95.7551259118917
95.7757396133105
95.7838407832574
95.7802363518164
95.7468446865479
95.7282443203909
95.7729139109661
95.8331915831347
95.8460064097689
95.8682406228214
95.8957477567037
95.8843571240405
95.878831577183
95.9085957030842
95.932723829972
95.9590633507276
95.9655936885247
95.9443373136652
95.9246378074019
95.922270223063
95.9510983986572
95.9834251389407
95.986476786748
95.9999397930725
96.0058578168503
96.0163882745641
96.0220593473718
96.022710121123
96.0448393149185
96.0771669368352
96.1077719413418
96.1301291554256
96.1256275383083
96.1239207842491
96.1190276159677
96.1115638803354
96.1154129549268
96.11311093537
96.1035799833553
96.1142881177625
96.1442778511131
96.1697915310213
96.1782103695303
96.1626970924571
96.1374791944805
96.1325824633698
96.154042819095
96.1567915548026
96.145627933506
96.1761379299544
96.1932643260155
96.1821754406926
96.177776739429
96.1588801004691
96.1430671281563
96.1498914714499
96.1570126080184
96.1591485908082
96.134777079503
96.0978941240044
96.0866072496268
96.0730847477404
96.0642443373162
96.0875515601513
96.1043151404366
96.084757075707
96.056894022456
96.0529885197899
96.0529869957611
96.0188290231004
96.0068424504478
96.0154121127293
95.9795927648216
95.961733361642
95.9960917317585
95.9829749990421
95.9601223697208
95.9999572267756
96.0100351482595
95.9998307136939
96.0147906848441
96.0575098285433
96.1104154140637
96.1349173644429
96.1661066952655
96.205976889519
96.2099620167706
96.1964014112874
96.2079257191128
96.2347890976769
96.2290101875414
96.2091562832444
96.2090795636545
96.2179451688956
96.2295881643053
96.2518893946206
96.2588306284615
96.2386967795699
96.2272868692029
96.2179366895407
96.1986757553643
96.2266306230343
96.2624748656838
96.247131356365
96.2627763843648
96.3141243144742
96.3159483937998
96.287341303002
96.2855735754616
96.2913246591791
96.2670250858517
96.2822953357465
96.3410902572093
96.3711167217642
96.3629709875886
96.358587961388
96.3439084448643
96.3302960697729
96.3679178846974
96.392777685513
96.3851612581898
96.3807417812721
96.3860612870384
96.4527228205286
96.4915730907644
96.492511224491
96.5289581199925
96.553096346607
96.5291379483392
96.4920014857822
96.4905965919463
96.5090845670656
96.5004164375435
96.4835581686506
96.4806859407737
96.4684451638124
96.4452509515548
96.4465403376018
96.4787885666493
96.5113322600468
96.5060290650094
96.4950038553336
96.4934381330201
96.4683060958603
96.4810026511475
96.5371444391553
96.5634443281493
96.562258360469
96.5610145938302
96.5831760769327
96.6314048899903
96.6517137105836
96.6400172956424
96.6256837307803
96.6151610267698
96.5892831081946
96.581605978658
96.6347875727006
96.6780906026029
96.6827945000831
96.681455781417
96.6808460361879
96.6620621739484
96.6552945022922
96.6709210857775
96.6828891199167
96.6779113014925
96.686422785467
96.70695342213
96.7064305261229
96.7049864118674
96.7227329768053
96.7722640185458
96.7969298654435
96.7856359465046
96.7872067539858
96.7835308193627
96.7686972827872
96.7785400047032
96.806528355646
96.8190900917605
96.8068945229901
96.7927178213022
96.8022726512759
96.8391242551311
96.8607838705138
96.868501794246
96.8689622279246
96.8630730209813
96.8582811498597
96.8503847180948
96.8608373521677
96.8766293308165
96.8846011074103
96.8916716196418
96.8906681372792
96.8831207588598
96.8790134990142
96.9011530463723
96.9237999286532
96.9240612140259
96.9322925348192
96.9338877169491
96.9234300316325
96.9282247471326
96.936034624184
96.945184024886
96.9515931110369
96.9530361502056
96.971313717878
96.995330042551
97.0147971096721
97.0280460258979
97.0298118549238
97.0173167906227
97.0116578980993
97.01185812215
96.9909766324934
96.9884560000178
97.0041537464064
96.9917728115289
96.996292753362
97.0035224024079
96.9817641852231
96.9781784564085
96.9935766087377
97.0005917551517
97.0128011882575
97.0357816348258
97.02967618644
97.0140331375092
97.0392055085655
97.0741236299375
97.0950160945078
97.0844287172875
97.0532767373701
97.062717234215
97.0981729355136
97.1008805729749
97.0857470384613
97.0961634046247
97.1130421922053
97.113146743568
97.1226823733365
97.1475066550487
97.1792037119077
97.1816992081943
97.1696322901463
97.188221059797
97.2031470777668
97.2029456408256
97.2265745052326
97.2352794851826
97.2258421723985
97.2363375946944
97.2410058199171
97.2552640590696
97.2978050308718
97.3312981688096
97.3336070870047
97.3338751250323
97.3397374671582
97.3558355092028
97.3599331102037
97.3458064122234
97.3304405400746
97.3180892702759
97.3516755659626
97.3972579669467
97.4181739697534
97.4136241106452
97.3925428614291
97.3860668000546
97.4032931652956
97.4302560792081
97.4325251771795
97.4280048146484
97.4272327715788
97.381350218858
97.3485205292702
97.3861644796184
97.4058490328349
97.3939785755826
97.3883981136696
97.3791544590762
97.3945834018168
97.4411962561184
97.4320921750356
97.4026471887806
97.4160128374506
97.4290288293516
97.4359761576511
97.4396060910258
97.4580760959418
97.4925241201246
97.4735910728344
97.4326796140458
97.4142668117495
97.4169006530877
97.46526052697
97.4991822779922
97.5023165176718
97.5054074186769
97.5314318548277
97.5756388268061
97.5589522864521
97.5069160264117
97.4795690010219
97.4586133146889
97.4575075262929
97.4715082741968
97.4638734770464
97.4928327451638
97.5226307998231
97.5002115370322
97.5126351290346
97.5544686160876
97.5514712887965
97.5386905081597
97.5443755559739
97.5516648257838
97.525840839925
97.5138017328663
97.5376445819177
97.5522905509394
97.5456727248239
97.5517047538231
97.5640385078199
97.5635248193965
97.5781713994568
97.5982458404694
97.5920429558213
97.5936103671605
97.6026017537924
97.5917663995353
97.5874488839934
97.5846031967619
97.5827711272769
97.5951546269569
97.5986775652908
97.6092968546506
97.6206729119164
97.6361529556618
97.6541704639201
97.661312314202
97.649193835342
97.6298299573612
97.6047860686609
97.6248969175025
97.6654884475115
97.667466709021
97.6615331470385
97.6631999223696
97.6607893219793
97.6795184610381
97.712235801264
97.7151835168221
97.6955852697771
97.6667561671091
97.6431794172259
97.6479174944238
97.6539538581538
97.6566348170709
97.6587116939583
97.6513703469636
97.6306425319129
97.6281645796816
97.6411050575866
97.6404971955954
97.6112826784163
97.5641527419259
97.5548787290694
97.577218299234
97.5773571547697
97.6363390215265
97.6755118640224
97.6384054982279
97.6831645805353
97.7389337812474
97.7361234236112
97.7160961087975
97.6905168902793
97.6751610487822
97.6703302475045
97.7023221728656
97.6867250887649
97.6345446541311
97.5812336768458
97.5768511651189
97.6069270337402
97.6298718718201
97.6096644833449
97.602448508273
97.6458564031327
97.6670054064663
97.6365149683379
97.6361323014524
97.6611122088056
97.66136741802
97.6056706729997
97.573395157823
97.573900652318
97.560949398511
97.5732547468993
97.611946266089
97.6401812525086
97.6630593384044
97.687173673064
97.6859434540657
97.6896034814742
97.7108327650713
97.7213905471108
97.7164374194903
97.7250458879828
97.7615436047311
97.7778961418963
97.7724356039216
97.7629113961176
97.7697196577886
97.786418915357
97.773304193273
97.7722737639905
97.8393761853606
97.8865760786536
97.8892598362048
97.8806577203419
97.8986069299967
97.9421679025482
97.9940339288193
98.022281570378
98.0146087099932
98.0508860838423
98.136391302212
98.0810235314167
98.0252565304635
98.1043970377634
98.1438056163081
98.1526517685793
98.1823769385453
98.1712853055584
98.1926447681698
98.1993624236142
98.1612903558155
98.1466120409663
98.187515383927
98.2162136379995
98.2444657287047
98.2890150076067
98.3431202047815
98.3985083701676
98.4264226752407
98.408357371582
98.3537261364676
98.3516588731751
98.400223074488
98.4186968901384
98.4631737715624
98.4265959186921
98.4155713912059
98.465680893266
98.4897097399588
98.5310890382987
98.5882579101964
98.4817602715513
98.4403490224087
98.5384777245509
98.5473070226485
98.5280060424844
98.5570613000236
98.5852567615951
98.5252199900619
98.443402707811
98.5650502726683
98.7100947809263
98.7011192944725
98.6888308222006
98.8497835246602
98.8620531877939
98.6811540149279
98.655517019012
98.7997796894649
98.8596578873545
98.907873786158
98.9355580464457
98.9868355110932
98.9464198588912
98.957223091093
99.1142853896278
99.1697883347058
99.1954980469947
99.1472002743122
98.9618164761961
98.8587366470975
98.8304994887159
98.8251153664931
98.8172653953453
98.869402358358
98.7838075565967
98.7003739901349
98.6796335102428
98.5706786778192
98.5328167052883
98.5100390623096
98.3926743754273
98.3660720632726
98.3193415383121
98.2740466417166
98.3145044464943
98.3322001281123
98.2663402964586
98.2406174051867
98.2580875957264
98.2563114307485
98.2404943002848
98.2708442661024
98.3031180549322
98.3000429718551
98.2716769629708
98.2602067508547
98.1996519687918
98.1935131955981
98.2645131131903
98.3093054785367
98.2442993818555
98.2187453667952
98.25463779887
98.3129111006415
98.3265875023142
98.3265290239033
98.3176639747097
98.2740432676472
98.2247025755526
98.2798061509252
98.3461865395479
98.3690160026444
98.2849554051236
98.2250751571847
98.3066163169817
98.3872096739716
98.3586476804648
98.3842575942708
98.4165152636971
98.4067601743115
98.4126551909012
98.4425503473723
98.4233354284495
98.4953351521983
98.5893054653345
98.5861712146771
98.4807307423954
98.479782561931
98.4515602539105
98.563340336651
98.719278153465
98.6424451101987
98.5977386143192
98.7633107092542
98.761157554141
98.6962978923032
98.8151835022415
98.9024783353286
98.6983257573272
98.6276637910969
98.6611245459067
98.7351867996209
98.7692640777315
98.7747725530967
98.7935331746473
98.810613272859
98.7600383511671
98.7280831865038
98.619661944758
98.5354846098776
98.6257365229032
98.7730216092703
98.7223126940942
98.658935725671
98.5948125156048
98.5529813521334
98.4154204592837
98.3998153479691
98.5125056260746
98.5753003499448
98.5293065058346
98.5167863199121
98.576497759279
98.7591150101097
98.7469455077753
98.7671087995497
98.8131738113377
98.7039389801125
98.5395436910509
98.5310224885967
98.5280010626929
98.5821478975717
98.5085693275213
98.4525756493668
98.4687467615201
98.4920960194656
98.4642494707801
98.4152808008771
98.3508965061663
98.3413186548428
98.3173662859881
98.3216644633146
98.2871018979026
98.2304139980832
98.1601496668579
98.1829988995366
98.1800634021784
98.2063835692617
98.1555777952177
98.1100401909385
98.0468476688291
98.0603565311254
98.0343634960285
98.0598817868289
98.0465009057466
98.0514626010326
98.093122434023
98.099977228445
98.115069494878
98.173589924205
98.1894787496672
98.1520055320749
98.0845117879425
98.0990977948393
98.1015775332401
98.096136829802
98.0788066827739
98.1169083069027
98.1518144816094
98.1424646843873
98.072988705992
98.1063147684455
98.1153573134824
98.1215694329744
98.1126400924743
98.1338758714933
98.1019514554509
98.1044670619731
98.124925846469
98.0714873613379
97.997825353064
98.035886100707
98.0580564472801
98.0712266559355
98.0828414754231
98.1291533299378
98.0999622331752
98.0556657129713
98.0515589144642
98.1120558750597
98.0812780329615
98.0659925438739
97.9779469827667
97.9083809840976
97.8671594742757
97.9676408098772
98.0427585500995
98.0339341753404
97.9862479110818
97.9677747707517
97.8818217858616
97.8542642617366
97.8430097314554
97.8607281587469
97.8395565562171
97.8582264392157
97.8918920682165
97.8919566971398
97.8842433046892
97.8972095992487
97.8687983269248
97.8201622345243
97.8084600794147
97.863509618356
97.900517787106
97.905264841175
97.881534525195
97.8576800233171
97.8607077225938
97.9164013947191
97.8905553832783
97.8350479315962
97.8278945397716
97.9353081077536
97.9869628949557
97.960377429203
97.9167126473756
97.8999660656928
97.9118421725514
97.9083429318368
97.9248905335504
97.8034845444156
97.7239482284806
97.7070541992036
97.805530656816
97.8794877299285
97.8714853240067
97.791498836413
97.7196783912408
97.6997461051044
97.7104900215203
97.724462152875
97.6658420744419
97.5715631326713
97.4085615628127
97.4082021238023
97.4514477507468
97.4457146266485
97.3477990859161
97.2373193215579
97.2100435169817
97.0776024545009
96.9079787715254
96.7094335157382
96.6302991566755
96.5926054899313
96.4380974860753
96.3144574110855
96.1144153039135
95.9182647307152
95.6456492699489
95.3823506885787
95.1170415202947
95.2253861173385
95.3184341324898
95.3423479195584
95.2954916523554
95.1964678459789
95.163322855659
95.1688370318036
95.0696033883418
95.1612158006393
95.1776020535268
95.326724047879
95.4806763698139
95.5792882698982
95.439218054534
95.259481270769
94.9773315314852
94.6802827983685
94.4637407603322
94.4420300150651
94.2703472090166
93.8233738079586
93.3886349672308
92.8426818197279
92.3091496227303
91.7431138084067
91.3138727307404
91.0422083509856
90.6659762987955
90.2741669520697
90.0195411579687
89.8779545793572
89.626061994537
89.1557593872173
88.8223800589425
89.52072747842
89.891195000654
89.8698602583508
90.2337703282303
90.8960142120295
91.2220578121136
91.391207684527
91.3512818641374
91.2462648490159
91.603667887492
92.096618195498
92.1062827536677
91.8874679292812
91.7003596710358
91.4153967022166
91.0258385763111
90.6466194990413
90.3315313969822
89.8905384757122
89.3215213973316
88.6409677853549
87.7550946529471
86.6350902936134
85.5567381616242
84.7219527659697
84.1240982562766
83.7378227084796
83.523035679409
83.5134756836232
83.5916082557858
83.8078104651199
84.2173710120087
84.7939340027012
85.450665815652
86.143614458144
86.7089661540904
87.1454931596382
87.4728329804041
87.86371478537
88.0514545540876
88.1295113113516
88.7505968086363
89.3412202477103
89.1779642278068
88.8346718397452
88.4626939974447
87.9958350748907
87.3734621207971
86.6243192763031
85.7013365442778
84.9814762408026
85.2607788613549
85.414807497095
85.2772198206986
85.0725789139305
85.0845753634159
85.0663463453139
84.9365382609342
84.7694482520932
84.6109455741126
84.8301992319734
86.0764447280208
86.328212340597
86.2121100192229
86.5170336466741
86.9689214679807
87.104627625997
87.2062093846593
87.5113377346686
87.5820904391356
87.9105420357495
88.4961773874101
88.8092886077161
89.1730539401254
89.420951777132
89.4845186457718
89.3237664062868
88.9152631872429
89.1158534778449
90.3489672517259
90.6602135569061
90.5845830175693
90.4752692440158
90.5076068432486
90.703516333058
90.7187648638768
90.721658160085
91.2177581046437
92.2605501317322
93.187994483073
93.5928735343809
93.7186582427596
93.7985367681573
93.7816925136366
93.7005224855816
93.5412259397083
93.5482120715477
93.9575418118957
94.2291109439092
94.1813057465613
94.0474445883704
94.1022507623489
94.0559447319694
93.7107612613151
93.1345302515924
92.8899045912634
92.5769537928394
91.8869554124025
90.7941476581019
89.805186311265
89.2683532931566
89.184652245162
88.9891966884132
88.4428739743888
87.5351109492891
86.5153400894717
85.4901781947412
84.5062021421309
83.40295524849
82.0268976573108
80.5126002027067
78.9619109951082
77.5074104667877
76.0618405444813
74.7830567644144
73.6130782634678
72.8123248755072
72.4416117610226
72.1982035085463
72.124661873194
72.2519289147014
72.3990550945415
72.5743621956699
73.0426285175283
73.5170292573277
73.8429362981193
74.5288745798053
75.2827578286876
76.2179850234628
77.319127525286
77.9212113063362
78.0542755674078
78.3190370811325
78.8684085501188
79.2384113721094
79.4584275547492
79.6726452503503
79.9000450416429
79.9328078220753
80.0430878136537
80.4130649922109
80.6219243263586
80.7456414989843
80.9967890191704
81.1082111149052
81.2046932658663
81.5894010640955
81.9597481373257
82.104579969797
82.1709067101361
82.2831675590972
82.4005338363932
82.5168590918511
82.7051262866679
82.9532413840396
83.2673701081162
83.5649023688277
83.8402515042332
84.3696958786073
85.0782156527562
85.6378600677069
86.0445517156025
86.4092127170427
86.7667189039753
87.1278201771242
87.4648832280647
87.7708171864729
88.0152967164577
88.177730158176
88.3518886357193
88.5343882832444
88.632719961559
88.7153304873807
88.778166808502
88.6709628878325
88.4682916027267
88.3971270330657
88.5296522541988
88.8111806332411
89.1881368466857
89.5421935520495
89.8001134414479
89.9569775222918
90.0356068913055
90.0501578534075
90.0420862141374
90.046414300625
90.0395348933936
90.0113984866376
89.9922671388806
89.9876461312329
90.0002806658126
90.0268916998653
90.065639306872
90.1356052259462
90.2475156379696
90.3562788394141
90.4213762726636
90.4517174920893
90.4568122364118
90.4312801248622
90.3895971022662
90.3448478120469
90.3081629705988
90.2901264252395
90.3160646369486
90.3777834262238
90.4997418987187
90.6877896446206
90.9240711925596
91.1700651606665
91.3994825672236
91.5937187298584
91.7618124919215
91.9115090739198
92.0401710114262
92.1309762838666
92.1432963697748
92.0534467144751
91.9215753657179
91.8792693190549
92.008429402491
92.2285191361328
92.4317951769718
92.5853290570917
92.7243760971696
92.8873264080084
93.0974281436318
93.3312472921483
93.5488143862437
93.7254146632485
93.8645812974247
93.9642120890079
94.0208505789745
94.0408525306504
94.0027473649946
93.8588862248767
93.59598748524
93.2911890952142
93.0436513890292
92.8342164206454
92.566006855717
92.097077674145
91.3716718527466
90.7019315428467
90.5276153128799
90.9070931721623
91.6466366474885
92.4372231990204
93.0495704232647
93.4444803550298
93.6485562676204
93.6954450171544
93.6424885323093
93.5120663807311
93.3198820946183
93.1184146030843
92.9655614653577
92.829781554597
92.6802727734386
92.5342634430768
92.4415004624439
92.4324152732201
92.4869846863305
92.5921088617917
92.7462871432938
92.9446422720023
93.1866164801704
93.444270028646
93.6814883393059
93.8653919643544
93.9996670088256
94.0694689700832
94.0809830616334
94.0495907433107
94.0040991035828
93.9361937925423
93.8467733262071
93.7735744115736
93.7119348446748
93.6259444718402
93.4981070283719
93.3097753221495
93.0646094713364
92.786081527979
92.5109405838095
92.2786637970645
92.1705187108522
92.2309413027951
92.4669832885405
92.8242837388867
93.2048019399171
93.5207280630641
93.7709618088417
93.960199640696
94.1120943165827
94.2304656859772
94.3155605204928
94.3495617260383
94.2928317795769
94.1283005178801
93.8545205923749
93.5177217825329
93.3065466791278
93.3743071894503
93.6108142425575
93.822553171428
93.9642023803057
94.0604342576729
94.1414509204598
94.2055495662575
94.2689447967751
94.3348401225775
94.3942599067274
94.4534510705562
94.5136735281893
94.5731337403944
94.6267192325308
94.6584356653991
94.6817273400177
94.7042386995557
94.6926967141464
94.6229993435397
94.4716768691379
94.113009411221
93.3578295652658
92.3575957212175
91.3792568615062
90.6748276543039
90.6112715113263
91.0642309261781
91.7435803688293
92.4353142264052
92.9718211716809
93.3127725968425
93.5232598015922
93.6284553419651
93.6636245674091
93.6277214783827
93.5407359688111
93.4217590953608
93.1589060022402
92.7046192988672
92.3827050308035
92.4639258911169
92.782270053926
93.0424748706772
93.1172763137463
92.9975074014392
92.7780617470437
92.6236478280257
92.6507133351884
92.8307204823764
93.0420918670956
93.1327618564985
92.8169860091964
91.8718686112989
90.8546310498049
90.3721928158483
90.2137077401161
90.244495326138
90.7881248382277
91.7516098131896
92.6169813484206
93.1635082896504
93.4705698397118
93.6429372221826
93.7720380352083
93.8601342755907
93.9035748351766
93.9234761877131
93.9266545177042
93.9261213094752
93.9253111808903
93.9399827711678
94.0002714950573
94.1019770833195
94.2095414558939
94.2996559749931
94.3748530629548
94.4234610360728
94.4758130255428
94.4968261546595
94.5020053375771
94.5144591644472
94.5199977068136
94.5297359806158
94.5503620113919
94.5471188631026
94.5461844277508
94.5691776950448
94.5874172706465
94.587236185521
94.5991391017418
94.609564954865
94.5767622039122
94.5255218781223
94.4718852819669
94.3904904566641
94.3052203759337
94.2282407168408
94.1251891649868
93.8960438822459
93.6670048191444
93.5803666901779
93.5182378445344
93.3340894516966
93.0058567395513
92.6021087713523
92.1902452995129
91.9099919917327
91.9595500154415
92.2735475358807
92.6779134858381
93.0833625324752
93.3874179765153
93.5665682999359
93.6998572889809
93.7291357245424
93.6874762966804
93.6066627989422
93.463071223039
93.273061528734
93.0139563022329
92.6787500256011
92.3382947855204
92.07621199653
91.9567360198181
91.9325216061005
91.9568937912533
92.0072398207467
92.0308626748931
91.9712851846201
91.7883191059017
91.4947266810884
91.2306899926053
91.1243164436213
91.0891221902364
91.0035198038167
90.8546536021093
90.6519068852466
90.4330759556069
90.2264351454178
89.988923131018
89.5327619367928
88.6391283775985
87.67217085156
87.2308148414715
87.4506225818636
87.9649184780682
88.4534203021233
88.892924332169
89.2237960253897
89.3079236765444
89.2095024982634
89.063799850281
88.9348720159447
88.8411203487202
88.7069102567994
88.468326662576
88.0258731205185
87.3486115791666
86.6236097152011
86.2920356742194
86.5644071404443
86.9716111449682
87.2305819312917
87.3799129866048
87.6703672471753
88.2811674607733
89.0437514248214
89.6544870029786
90.0001681968547
90.14304575735
90.1845132233143
90.0703038374458
89.8654892943687
89.6475683566284
89.3070941815081
88.8850553200519
88.5275139048442
88.1536570603548
87.6925217096844
87.0877754559262
86.3462020372838
85.3885346943309
84.1550003478893
82.7989235306113
81.311978364434
79.7145646768504
78.1088305541357
76.7286793966061
76.1952446473202
76.6534093078652
77.7721901228628
78.9235301207576
80.0620854127028
81.4458838485125
82.8007561098424
83.6451606339932
84.0852390666405
84.4837695398884
84.6711955074273
84.4507413396428
84.0567790430697
83.3147545673803
82.60690885008
81.9871311123023
81.8032040724122
82.2546056168824
82.7987771824281
82.8507451309007
82.5620000146674
81.9182499125616
81.0527245673107
79.9534706725549
78.7745080360785
77.5654969014026
76.5647040225408
76.3978113560663
76.383953858419
75.9804136324831
75.4936930517836
74.9870955155266
74.6493179128977
74.4793738271556
74.4287426483131
74.0221654353778
73.7997018061203
