1798
3999.43349933624
650.420452594757
1
128
4
99.8059096829431
99.7819304418186
99.7221651739889
99.69215698251
99.6965245692573
99.7099816012283
99.6949095772418
99.6934265587535
99.7004090388498
99.736123345786
99.7240162652006
99.724432862501
99.7280975468195
99.7369561075211
99.7204859151162
99.7042197301497
99.6811789341718
99.7110129793111
99.6909383501478
99.6775715805815
99.7099105149106
99.707862581923
99.6796530839889
99.6923121178611
99.6503578822903
99.6020897641509
99.5929903326284
99.6949376767899
99.6736114438237
99.5231866183297
99.5984490262359
99.7045759764804
99.7034715118304
99.6713282900996
99.5342336837025
99.517955349762
99.5679019874616
99.6696714240715
99.5961915631531
99.5812856325532
99.6486383421197
99.5616475972072
99.4932487905807
99.4618508299137
99.6138131424126
99.6570409248788
99.6880694596484
99.7125809080109
99.6984537991353
99.5454047631916
99.3579973527484
99.3454288724681
99.2853063916695
99.3704438957628
99.5114686983115
99.6024135110854
99.5289376590662
99.4443338454324
99.6800787462329
99.5140186487299
99.3665051576179
99.5428480666721
99.4415740000726
99.4553576500278
99.6522661888744
99.5487280465952
99.4230825208254
99.5510365864475
99.1607695882509
99.4200607571432
99.4126714739138
99.3464169436258
99.4285113226322
99.5093189072085
99.5390578175494
99.5028902973678
99.446450315173
99.0189563932845
99.2265564429662
99.4489306468514
99.6276581742657
99.6882374706866
99.6008325094053
99.5070558996012
99.379106867053
99.2297346757784
99.2812566601254
99.4283753614972
99.5001594028062
99.4305702846502
99.5890602595654
99.505868007539
99.5309618916294
99.5940753253758
99.30896736131
99.3588807095642
99.5587032221664
99.2694848343842
99.5805048383343
99.628123083822
99.678806228093
99.6845563767041
99.5185538997955
99.6149124701595
99.4944471872286
99.2363228781421
99.5195216911106
99.4693164901942
99.5435894408681
99.6756768675801
99.7239774148641
99.7387468808094
99.7635105095138
99.7341920040712
99.6560104028703
99.7126418549325
99.6487887492741
99.5523432342748
99.7068532734536
99.673361829689
99.7381616968683
99.6922359145132
99.5349691964853
99.5855433134432
99.4826687133048
99.5647096665223
99.6931161541139
99.5410236952707
99.4423459419158
99.3615259492705
99.4962335735524
99.3246417992184
99.2389289739208
99.0101651232124
99.3404014276149
99.0691635843975
99.0789394599222
99.3522573680486
99.395068333086
99.3503658641829
99.0071778386107
99.1305441929332
99.1385008973533
99.3370978213474
99.5196022750697
99.450273701922
99.4691282061908
99.4118219536778
99.4945520967463
99.5658283206222
99.5183276731802
99.5601913369133
99.4375787331866
99.259750783695
99.2710435803416
99.4099875522192
99.51435318811
99.5940133701181
99.5258029221228
99.5435120373105
99.6518303315698
99.6130829051812
99.6559012119932
99.6090411958832
99.4516103587195
99.3044387730238
99.2781625707564
99.5071616684409
99.5022904032291
99.6329538477356
99.4553661155896
99.4472075168381
99.2275298426246
99.0826819975191
99.3878672868499
99.1125287528916
99.1000891886748
99.3598425005486
99.5241449257489
99.5609184753934
99.522778620706
99.5106144007483
99.4654455556331
99.2452681343438
99.4189033282902
99.2904151036798
98.9614625646081
98.8023792294375
98.8759114474512
99.1656510150439
99.2336548272559
99.3458659799914
99.3977417194415
99.4001828324036
99.4375471750406
99.2347783973004
99.3186639081325
99.0525775637899
98.9428225527907
99.1698399618543
99.2493644107434
99.3225326640088
99.1409417283496
98.9745434109597
99.0619065223359
99.0887686463221
98.9895053468972
99.0847916758476
99.0469942968946
99.0153681528445
99.1584030398814
99.2551794899113
99.2135960385522
99.1773627698304
99.2182862257369
99.1528447267938
99.0943508932132
99.1607576578607
99.1926004599618
99.0309847169766
98.8666125382719
98.9347843477881
99.0433822844252
99.1507913447478
99.1951710431352
99.2048660221173
99.1822463487854
99.191337795634
99.1924829722609
99.1784322556596
98.9342235585145
98.6796459993652
98.844328163823
99.0227927118556
99.0615395829452
99.069603607056
99.1051081020342
99.11539103407
99.0499092728025
98.9757555933735
99.0551315726273
98.9970143185259
98.9054026750272
98.8801007015546
98.9172199275513
98.9878981097392
99.05598509361
99.0050727597414
99.0394969248695
99.0629569669465
98.9802368967776
98.8748081908666
98.8295642096822
98.8772781415868
98.8435016624391
98.8930419641364
98.9650881491348
98.9407438280035
98.942405750913
98.9487426740209
98.9272379505059
98.8632080190479
98.864899948703
98.9065460425271
98.858952512236
98.8256747470617
98.838056825833
98.8449049102407
98.8729917505226
98.9000168255876
98.8936008504518
98.8645931880877
98.8625154662577
98.8191206461546
98.8156008210752
98.8277772424926
98.7697270504085
98.7564923060995
98.8096776979606
98.8525961964722
98.8916249717839
98.8837373695312
98.8146769743065
98.7763002270073
98.7729929441115
98.7445993095509
98.7245234304295
98.6830017319604
98.7180449766312
98.731707944041
98.6975776811706
98.7310194486791
98.778605819436
98.7527891301853
98.7316923636517
98.6829798390079
98.705217555979
98.7347891825742
98.7013826850219
98.6546710799202
98.6797122379726
98.714482659681
98.6555086900808
98.5902927729285
98.6042322391938
98.6610018061026
98.6984347450525
98.694201646651
98.6753657047633
98.6796890088781
98.7162194874941
98.72282601602
98.6623527795938
98.6460287185362
98.6647654661975
98.6954529134105
98.6986036514648
98.6628421081033
98.6422053744521
98.6595559978016
98.649038843738
98.635657344244
98.6469200266661
98.635130700278
98.6040941210655
98.6212075661257
98.6239016781033
98.6254944235868
98.6416633605759
98.6598227286606
98.6596223126007
98.643242696249
98.6903398806071
98.7051731493788
98.6233091437739
98.5831143533706
98.6241853409809
98.6896452318659
98.7255975365251
98.6996171596652
98.6625043268337
98.6118680020606
98.605291299306
98.6392218286583
98.6369687998747
98.639202789696
98.6684338052893
98.6977202610637
98.6975456632265
98.6518377443217
98.6178471190954
98.635483742099
98.667590401011
98.7169741167646
98.6997252936201
98.6515795392176
98.6559822728749
98.6398588638198
98.6109958182455
98.6009953228972
98.5965965304344
98.6115341575545
98.5990520806849
98.5858348082636
98.5975829621924
98.5934732921824
98.5841047705715
98.5749483353636
98.551306863155
98.5276839833405
98.5560483166495
98.6313231590324
98.6738322559701
98.661544599077
98.5892030481576
98.57790992863
98.6063544679067
98.5836557469451
98.5925454993622
98.6628492595426
98.6853939694247
98.6702880476118
98.6549106521668
98.6444958072628
98.6482816126483
98.6408411544706
98.6331624584408
98.6584806350295
98.6588804386352
98.6488691251454
98.6559456256551
98.6749953145528
98.6852285518992
98.6645599683487
98.6510653354721
98.6461849110072
98.6442290466359
98.6640658889657
98.6815009407428
98.6806883811387
98.6677724876697
98.6356492980887
98.6599865566944
98.6976027618161
98.6933066659081
98.6982407293324
98.6625159666335
98.6336337054471
98.661792567438
98.7029955246225
98.7206828781119
98.7305713335744
98.70050431789
98.6513465934096
98.6746012571511
98.738912810282
98.736023573599
98.7266450424127
98.7338502182666
98.7118327397716
98.6640533071074
98.6658638281946
98.6876080282688
98.6694129187072
98.6830786686117
98.7217186941172
98.7385242424475
98.7401988163795
98.718552697867
98.690346136985
98.6682746002094
98.6517105199568
98.6641183720155
98.7049036833783
98.7231583985508
98.7137807263135
98.7093785013159
98.7000049523724
98.7150764261899
98.7331728295187
98.7174679402453
98.6916938870446
98.6841753256967
98.7208781090731
98.7335910251563
98.7533261618265
98.7736103688557
98.7568268483527
98.7233532782542
98.7256727278834
98.7462488756746
98.7360185519385
98.7032454117432
98.7021016254957
98.7340235334786
98.759772031038
98.7521353846522
98.7412789296061
98.7255843574259
98.7088972445249
98.724688386275
98.743808831318
98.7479839481681
98.731768307044
98.6960402464392
98.7030829693585
98.7334336630345
98.7311209694006
98.6901726783751
98.6960987577122
98.7164662812461
98.7197016569773
98.7310378850701
98.7220417817894
98.6923410781486
98.700168753471
98.7053789869139
98.7110649466395
98.7498898800684
98.7703614223493
98.7108475810176
98.6795908110022
98.707498521438
98.7512535831769
98.7425177317119
98.7197717806341
98.7306419572924
98.7469619966217
98.742205777735
98.7355497572345
98.7338484508462
98.7382967697553
98.7158816785809
98.7252600742197
98.7684927815191
98.7525804855393
98.697634161642
98.6914298518076
98.7025162380121
98.6971824878469
98.6821466126843
98.7127920430276
98.7523176470148
98.7440278628884
98.7254704664921
98.7134966320853
98.6943516674538
98.7095164355104
98.7535853334135
98.7415159263636
98.7325079763769
98.7671058454979
98.772493690496
98.7627289744991
98.7520871650328
98.74886743848
98.72655307087
98.7282636216992
98.7498176159899
98.7787767126969
98.7898771839075
98.762381078156
98.7480925622212
98.7740812869531
98.8038595586293
98.8205383137096
98.8167794712721
98.8142791149447
98.806713262671
98.8032508751331
98.7995474189516
98.7977592008386
98.809459129773
98.8108557185971
98.7938279818159
98.7879412154248
98.7885256313105
98.7877790601333
98.7958692272708
98.8183467230494
98.7965244892018
98.7828596821804
98.7873168433911
98.7905997235576
98.7872112618886
98.7815517562532
98.7739990469616
98.7773657982265
98.7751272364553
98.7559651538549
98.7432099636682
98.7398388705995
98.7191901258599
98.7261706635308
98.7187758411815
98.7116220583107
98.7146239043006
98.707566537682
98.6958840658579
98.6923237515495
98.68606899445
98.6911017443907
98.6767721617373
98.6680712378647
98.6697141349253
98.6805300090452
98.6555497096309
98.626602902541
98.639785730907
98.6445358407727
98.6041575808583
98.5957569327813
98.6106294063851
98.6025222044004
98.5766718652088
98.5828237728832
98.5966766043013
98.5945904572501
98.588426083935
98.6217891668368
98.6586220698134
98.6949674713516
98.7199409831009
98.7235029810366
98.7241590948602
98.7400379632397
98.7446496742175
98.7562059252781
98.7567723668256
98.7507982826814
98.7540407750515
98.7704201404696
98.7721871647247
98.7772507330365
98.7822924565299
98.7894550059287
98.7744380508342
98.7588522942844
98.7780299952789
98.7879282756328
98.7622297141886
98.7600517224611
98.7668827229602
98.7853475045844
98.8049595811044
98.8089027081298
98.8007211259411
98.797764536437
98.7799051638564
98.7901623079889
98.7983715965883
98.7810464417147
98.7840619315026
98.8304306196883
98.8614858573032
98.8562521179969
98.8447853376637
98.8792839341001
98.8911412850015
98.8864666933192
98.8774334028021
98.8791403928996
98.9067254608208
98.9347602838199
98.9514913784989
98.9465862372503
98.9272547542832
98.9304294037539
98.9461784900712
98.9451704169466
98.9310543754726
98.9526461147904
98.9672756884667
98.9579002871827
98.9461557179085
98.9507957373251
98.9546605671536
98.9703145719862
98.9739239908866
98.9729121163352
98.9628477145445
98.9441708011889
98.9335961985335
98.9476557432558
98.9727996456179
98.9989658596238
99.0023994037481
99.0118542235884
99.016849408557
99.0102852809202
99.0109184054413
99.0333522302663
99.0374222140455
99.0318513278016
99.0140974403499
99.0097958738511
99.0182061817791
99.0259445370029
99.0359939861889
99.0437442613317
99.0438672839093
99.0440333198116
99.0479091746838
99.058165154311
99.0537402531086
99.0485146869173
99.0485634376963
99.0660871853268
99.0789663531679
99.0873071970348
99.0953222747123
99.0925680304487
99.084487444838
99.1057108948824
99.1095796784547
99.1103715367806
99.1233044154545
99.1410048214463
99.1528633925569
99.154008170121
99.1404903189728
99.140658512902
99.1303786254793
99.1219775393746
99.1369950463624
99.1516745221779
99.1489520036504
99.159106505835
99.1677071224067
99.1616644052583
99.1542927315967
99.1662540897248
99.1570143576208
99.1622116581239
99.168271464028
99.1663765192726
99.1642220548947
99.1859838126804
99.2019781295176
99.2046094589867
99.1990511671379
99.1845017420989
99.1655640124457
99.1858437382677
99.208693647629
99.2124581616168
99.2002957460963
99.1973876160874
99.2124318050975
99.2438777355829
99.2415905412696
99.233748312845
99.2364068732114
99.2181558879442
99.1925493046482
99.2123310943306
99.2241850135239
99.213864352254
99.2162280954417
99.2400272996177
99.2484199634202
99.2372232093069
99.234237151656
99.2662988808364
99.2822242829503
99.265785863654
99.235740716763
99.2319412666138
99.2556358408747
99.2804106863442
99.2662416946643
99.2478997979181
99.2352892273079
99.2504751559574
99.2574630356659
99.247596109088
99.2345218051851
99.2699905818841
99.2871347113912
99.2912571339722
99.2987755612283
99.3049528402741
99.2876640290208
99.2881127955513
99.2877101249163
99.278343497656
99.251061975453
99.2821922767981
99.2994185049353
99.2730732199996
99.273548712724
99.308440070349
99.3032063203185
99.2724656322457
99.2676352589365
99.3227018767756
99.3432261836293
99.3305202331727
99.3145627678319
99.3234783548264
99.3279780987687
99.3480388127505
99.361358218572
99.3547924927186
99.3361380540296
99.3228202069546
99.3156017781016
99.3341365305838
99.3340612444596
99.343635972462
99.3307367716579
99.3353256302115
99.3475558847089
99.350579213033
99.3493383013897
99.3569480214492
99.3440881070498
99.3597144140797
99.3763703442838
99.3430756496524
99.3048513940748
99.3172447388894
99.3126374566107
99.3290154820858
99.3277627636115
99.3079418074236
99.330811115558
99.3714483422592
99.351962732468
99.3285274998572
99.3050021283035
99.3329388310254
99.3478942859749
99.3421539227886
99.3466436526537
99.3508227862753
99.3291962081672
99.3578415959966
99.3510086552263
99.2987629414547
99.2855778333784
99.3266056623844
99.300870118575
99.2990252923634
99.3427098938895
99.3652819667376
99.3467851948903
99.3594976497876
99.3400658799646
99.2990543854224
99.3098312890477
99.347003107999
99.3238446299042
99.334877345916
99.3677126003949
99.3798870674305
99.3431106799588
99.3300600064195
99.3128015553373
99.3029405061035
99.2917557572417
99.2901452137928
99.3213505933732
99.3804234473422
99.3769018519429
99.3621811688031
99.3592691515741
99.3617348092261
99.3815567982231
99.4022261856261
99.3854235572898
99.38442906888
99.3676364573078
99.3670495712462
99.3909664943447
99.4372714494118
99.4252025794106
99.4056974189032
99.3957834727735
99.3889775056786
99.3628531055552
99.3824651260796
99.37158998852
99.3639337134414
99.3756977635539
99.4021781541639
99.4159998350383
99.3972752688494
99.3653497267451
99.3895318783244
99.4255461855535
99.4285041850513
99.3894501646922
99.395088718308
99.4176518520211
99.4345895860418
99.3944728536238
99.3776447702493
99.3912379360311
99.4090419503488
99.3909231141373
99.4210780193633
99.4377996865462
99.4096344148113
99.3842021467282
99.3918558018389
99.3641455378254
99.364796173095
99.360274492301
99.3334804807651
99.2980653274661
99.301840848367
99.3570598618347
99.4540932367997
99.4135790058571
99.4044957798793
99.4511135462757
99.4333594368562
99.3849428407676
99.3905092254289
99.4365038362635
99.4204364074712
99.3746828027049
99.4076993302909
99.3814269776628
99.4000902916528
99.3973597708222
99.3915521464037
99.3759194602494
99.3741877695359
99.406371855386
99.475083505363
99.4839426002803
99.4059709142102
99.3798458765276
99.4462573824351
99.4079406203368
99.3809408857122
99.3598649762476
99.3720885654779
99.3749344887648
99.3652096586161
99.3558544525943
99.34448001162
99.341082591221
99.344414358784
99.3399619179937
99.3884014817128
99.4164979067395
99.4020169408712
99.3869745883932
99.4141675046793
99.428583409576
99.4408068550017
99.4274201497437
99.4277455627821
99.4340884541402
99.4735093493949
99.4666643919757
99.4577610755939
99.461354342807
99.4770835820762
99.4730016296635
99.4939746998021
99.4972945025619
99.5049101895034
99.5021018946607
99.4954111102328
99.4793489526176
99.5527666550915
99.5568830155338
99.5508559238092
99.5576119282465
99.5801897252599
99.5576580745913
99.5519741023377
99.4523292865657
99.5105181537162
99.6054088705226
99.5534678435227
99.4819727778018
99.5208806500024
99.5318760064866
99.5574902609802
99.5077476320466
99.5035018753013
99.5231580802843
99.5426702080373
99.5207711608865
99.5799671054032
99.6237656635728
99.6607064793207
99.6898326093546
99.6912205375976
99.6365412695409
99.6314151599635
99.58497686526
99.6105413168649
99.6055153578097
99.6209267736731
99.6263722993058
99.6314227330426
99.5829717222221
99.6573086851334
99.6208752677178
99.4724756699641
99.394038038182
99.498538940232
99.5751125483809
99.6324365342494
99.5467238727739
99.5857345020389
99.6116222059272
99.6071246034745
99.5983745462074
99.7002100830694
99.694969416415
99.6704184985419
99.661224116641
99.6619643653299
99.5472329596458
99.665139137138
99.6957155478285
99.6421016406726
99.7186165780222
99.8564565513781
99.8393441372213
99.792294436165
99.6753821406786
99.6873682247105
99.6364684807961
99.6868735925159
99.6515833445488
99.6621995230307
99.6323732312993
99.6140319721905
99.6412012998193
99.6733154646829
99.5248415604212
99.5121012670798
99.5850495545654
99.5761627967998
99.4355686505837
99.4516322951354
99.4745081672268
99.509420927101
99.5277286396258
99.5464704607975
99.526033689626
99.5745882834495
99.5528291591641
99.4893134963202
99.4295883338711
99.4588254772351
99.4727147149468
99.54463899322
99.5917012701557
99.579647248747
99.5252722310728
99.5477045672031
99.4989740021263
99.5022519141281
99.5174803297403
99.5529180864444
99.5150069366518
99.501182055806
99.5006638818161
99.5092136048025
99.5265680995374
99.5434827123937
99.4712736282724
99.5412651392954
99.550770940961
99.5778070665176
99.5871948075279
99.5667434790712
99.5271028226702
99.5275284376591
99.5223637654283
99.5675460524627
99.5387066315803
99.5520990220334
99.5600515777465
99.6001209587923
99.5636713319653
99.6670436885215
99.6095715554853
99.5266900130471
99.4649176177775
99.5869532583072
99.7826906081782
99.9102562871894
99.7182896841777
99.6459638667947
99.5895210892743
99.5709642210682
99.5207584984046
99.5406435116465
99.5677700695058
99.6703434285035
99.6203593025004
99.6640739763728
99.6209813663342
99.6800662523537
99.5936786402713
99.6461359335363
99.6271675909491
99.6483729730557
99.6790525117369
99.835468596053
99.8008926895256
99.6648248583567
99.5308637472488
99.5263526972935
99.4319233397347
99.4665019878412
99.5436102083457
99.6053265694647
99.549999884567
99.6222557265903
99.6064388850965
99.6837116114403
99.7035221859905
99.7586722444723
99.6728747710056
99.6799033121843
99.6324437758709
99.6495972721245
99.5519430909841
99.5064243863467
99.3770345953528
99.510202050849
99.5116555197947
99.4906314307484
99.4273129962711
99.450321746504
99.4958040889605
99.6222001466882
99.5464188546022
99.5100631806696
99.4378866883807
99.4391619181783
99.3879207786141
99.4505253833091
99.3838636419101
99.4677344270703
99.4880822786212
99.5192253035219
99.423671337211
99.4505293560104
99.48150101759
99.5333355427836
99.4083248491282
99.3459702844401
99.2886865157809
99.3605061855647
99.3627560551982
99.3228904877041
99.3945230638644
99.4874790542358
99.4748629912188
99.4326976644782
99.3927680316927
99.4489111115188
99.4603499684155
99.5291656239208
99.4399580249997
99.4240648101092
99.4297921932672
99.4392963859544
99.3644045190124
99.3733197353455
99.3304096661778
99.3922021575425
99.3997591624385
99.4503481843885
99.4532932105611
99.4588236967896
99.4343471245555
99.4791630680233
99.4882925118475
99.416055047
99.2205294339834
99.1470908816953
99.2181209157348
99.3701792395448
99.3773648913547
99.4201201815474
99.3912413195302
99.4579813331096
99.4301088284674
99.4569362729383
99.4130845493011
99.4393251473765
99.3175223495487
99.2577521191415
99.15211734389
99.1933065468649
99.3452695820099
99.3686487726582
99.3318453883771
99.3760200173723
99.2868954994893
99.219851542548
99.1341332862865
99.1690486417938
99.2200551916938
99.2365474272805
99.3657639312189
99.3650642807767
99.3591968414036
99.3978275943279
99.3818548388008
99.3155753122592
99.2206170025388
99.2373121341571
99.3205045313658
99.3732440725864
99.2798615500239
99.1700594432133
99.1893509334814
99.2463574043596
99.2127843930178
99.1540294139868
99.0594744073105
99.1321350954071
99.3122458191089
99.3137893944706
99.3026877097191
99.2854510194315
99.2957641004882
99.2459483754224
99.3136217052952
99.1496796380578
99.09902030721
98.9782955316177
99.0474832306504
99.2093222916581
99.2460227521039
99.2359247619492
99.1779483244569
99.1540452504845
99.1914366418722
99.2339487483094
99.1491192399103
99.1589947376632
98.9265664818352
98.869710483253
98.9284231217008
98.9562311301876
98.9444800930336
98.9130283627187
99.0188374368045
98.9257011376195
98.850984543768
98.6904226318903
98.4713160938883
98.7044293020594
98.7600844425149
98.8576808824
98.787096042535
98.720263862579
98.4997201352155
98.3364880613257
97.8399511542586
97.7613045212765
98.0184850115296
98.1994124943999
98.2501644715521
98.1482871861856
98.0772997313161
98.0183501119644
97.9040440461582
98.0016219460003
97.5964414241735
97.772958026446
97.8856608620001
98.0743839964927
98.0880116263204
97.8744616001737
97.5657874917691
97.1776957619867
96.4690710046634
96.0008734498861
95.9461919485101
95.5543532873306
95.2402630243649
94.6690611760387
94.3541245604716
93.9589574404241
93.5055617475004
93.5265157458182
93.483906724284
93.1524324666633
92.9047970159902
92.9511254390865
92.9588007934155
92.6329980723293
92.0069236479191
92.1168466859561
92.949250665243
93.1150746034963
93.1375256424262
93.8757512756473
94.5729129871686
94.984390385098
95.1389394320143
95.0463292681624
95.1849398717764
95.8190071998859
96.3315756199192
96.4015732368502
96.4416914032743
96.3891217017829
96.3100542887465
96.264479933431
96.3800911334685
96.3115077933003
96.0575311300439
95.8931262507569
95.8635325342509
95.5234215758231
95.0387512416072
94.6608668457418
94.4061795625065
94.241579451821
94.1218830974497
94.1719186217061
94.2257633652927
94.3004405552702
94.4582948916726
94.7032711990996
94.9390035467477
95.2008440580135
95.3922722315457
95.5973543281907
95.722833840712
95.9368411195908
95.9905867826058
95.9156550999676
96.0002515837396
96.4290341203701
96.6061244288904
96.5021409629717
96.3790303953479
96.3926701308322
96.3331014156946
96.0950601391013
95.6753544530776
94.8530216778062
94.7737650118474
95.1801958264352
95.2994622399208
95.229175847445
95.3223107409364
95.3383422189492
95.3269734062429
95.0390489136861
94.7868650125265
94.5233191704597
95.362520598246
95.9312950459837
96.0275072566374
96.0076838234711
96.2810932762033
96.4807596116922
96.3972060134219
96.4049520056505
96.2631414315708
96.2694125429862
96.3469906137601
96.4880172428298
96.5954743530651
96.8021986005475
96.9881520943081
96.7508185757856
96.2394826804077
95.8420674685009
96.4345137842159
96.9340776614131
97.0554124211988
96.9086206600406
96.7549204660642
96.9109393647569
97.0943188152287
97.0600045843144
96.8958075247821
96.991585679155
97.4546322412031
97.7668557024794
97.870860989366
97.9095726832306
97.8985267049957
97.8401294214776
97.5634563813935
97.3358651619477
97.4780459722429
97.8317235102234
97.9621364596324
97.8077893288712
97.8164727358283
97.8616598043993
97.7658326931221
97.2934641870109
97.0979609984855
97.1540874930675
97.3688207026222
97.2114377881792
96.9736506762693
96.7352341298858
96.640823992405
96.4976710395146
96.2768370459936
95.8953415962547
95.3957463167659
94.9057253498904
94.7339551159897
94.5910825526968
94.1361665751522
93.6991384348445
93.2116525680648
92.5861089618006
91.9323000064028
91.3653681292994
90.6324254862143
90.1936730848805
90.3170257583621
90.3265930452743
90.2241636799401
90.2277503359485
90.3363980113658
90.3756130662919
90.6152131342499
91.0526066941621
91.2710321962099
91.4500600304381
91.6447832358576
91.9065513747543
92.2394979745309
92.5037540504478
92.4064454613228
92.2090364025992
92.3669708942776
92.6969910695691
92.9676970302515
93.1651774682281
93.4018689856725
93.4963520460494
93.6069167578885
93.8787492901502
94.163979394636
94.3148797960296
94.5157034822265
94.6004936649817
94.5320397060255
94.646480189423
94.9733555675695
95.1591125579759
95.2100972208759
95.2730690023117
95.3430101853184
95.3722649979944
95.4102097162787
95.4802472001242
95.6145853717487
95.7135337400162
95.6814311817494
95.7209073626013
95.9921872587743
96.2912627408152
96.4971384542389
96.6233947291515
96.7211109650064
96.8168090294629
96.9048632208378
96.9952817609992
97.054778865023
97.0581082079019
97.0700956958983
97.1131688153493
97.1421025331836
97.1664403674472
97.2164270269879
97.2317067863855
97.216475079899
97.2233620552903
97.2762460876061
97.3463459139906
97.4115699554456
97.4522416263385
97.501536525443
97.52203309785
97.5132585694797
97.4883111240902
97.4648729196992
97.4580376827252
97.454933340966
97.4337069237131
97.4169717558779
97.4005033461388
97.3912077991354
97.3953915801361
97.3920057351531
97.3808507469096
97.3850443626707
97.3878052582174
97.3797064495683
97.3573612189318
97.3078532050671
97.2117569896185
97.108881106264
97.0137124004484
96.9556208158076
96.942052460997
96.9779798258665
97.0535015794338
97.1596830377156
97.2667555355002
97.3801437819489
97.4881901768157
97.5820660816214
97.6578535050861
97.719739150351
97.7725020422343
97.8222362221554
97.856331117818
97.8738046126348
97.8513152322877
97.8046934554903
97.7654008428082
97.7776704524048
97.8305925930185
97.907139646305
97.9701095645718
98.0038311016901
98.0319652210264
98.0908157702029
98.1530371898953
98.2121665012846
98.2741401774817
98.3251899811328
98.3588606259886
98.3947522056254
98.4165150646429
98.4077830579981
98.376150555463
98.3136828969156
98.1972992148209
98.0590248161508
97.947524412876
97.8787668236141
97.8123415243763
97.7328521058041
97.6687150609225
97.6660997360191
97.7323051195259
97.8690091802355
98.0307405702807
98.1737269191226
98.2633566733181
98.3072911303295
98.3209930324595
98.3123036478551
98.289545969229
98.2517457613617
98.1987640314564
98.1609490757251
98.1301488160524
98.0899707912049
98.0471858472643
98.0206520607273
98.0188846954449
98.0348154697963
98.0621460342064
98.107547820222
98.1574296017043
98.2117111929201
98.2579989733646
98.293905433056
98.3232771650635
98.3424771849037
98.338922594459
98.3159138504711
98.2692183180029
98.208702240678
98.1554727132211
98.1059442060546
98.0433848961646
97.9733526317789
97.8721414576975
97.7341321061056
97.5698868930249
97.3774909651447
97.1576647418379
96.9624678645595
96.8083492122133
96.7124918797578
96.7029463609157
96.7830050015369
96.9145747014288
97.0712706894383
97.2269556989787
97.3829718278665
97.5476005053298
97.7136654162062
97.8504320582999
97.9749435483079
98.0545534632217
98.0861843325518
98.0872763230671
98.0614230437894
98.0219809448796
97.9932550704834
97.9700882196402
97.954756139888
97.9418412924055
97.9418571668974
97.9610710115636
98.000608513445
98.0480554574741
98.0788316393352
98.1036390727376
98.1457689018059
98.1927522868804
98.2269691448419
98.24789410719
98.2901063838977
98.3336363085403
98.3665691364255
98.3852106350109
98.3938860685302
98.394291122719
98.3939609743417
98.3607119381174
98.2628024774417
98.1040952319538
97.8990875356696
97.6548259347408
97.4295592048267
97.3739856535157
97.5302960098665
97.7681984603438
97.9603675950787
98.0823990464866
98.1551133061756
98.1889305266955
98.2071545210539
98.1988535345813
98.1901374124109
98.1700843732653
98.1068491372949
97.954333627645
97.7927643285169
97.7281149953474
97.7753442401417
97.8337384205558
97.8232521711521
97.7354525340434
97.6074251380686
97.5502673940015
97.6282281857128
97.7658617607502
97.8722311204857
97.8941590833209
97.7844076657165
97.510920808139
97.0994325220582
96.7031502970616
96.569846438685
96.747893825703
97.0808851371118
97.4255461588093
97.7024092136973
97.8875109894339
98.0154652569129
98.1009820854534
98.1407761492188
98.1497472071466
98.1621584740127
98.1732463544218
98.1738924109697
98.1677891310052
98.1572160212474
98.1578059632876
98.1786402398549
98.1963532724716
98.2057979366705
98.2085759215221
98.2107370326293
98.2235749786972
98.230967590567
98.239699974841
98.2553232968878
98.2486589873727
98.244320307871
98.2578511542933
98.2620667500586
98.261011827272
98.2626097700162
98.257288346688
98.2566910265002
98.2568096717424
98.2557815385034
98.2478214765693
98.2329574668758
98.2383331135658
98.2376369279578
98.1967929479977
98.1516348198009
98.122050249575
98.0765083138092
98.0014797602582
97.9296833614243
97.8593139635983
97.8193467618506
97.7377154804555
97.6175294975534
97.517294018785
97.4086001804857
97.3473081196123
97.3853233596893
97.4685236845801
97.5786894823364
97.6872553122209
97.7962769485427
97.8861521329512
97.9677111183638
97.9796600904339
97.9575511254652
97.9573890541519
97.923454563771
97.8548600025201
97.7661003091165
97.6800246936738
97.5666591795863
97.4630456095527
97.3709654859537
97.2990305732312
97.3243955729102
97.3911703971024
97.421353784548
97.3695573936189
97.2778268323127
97.2070647201151
97.1183629966146
97.0598645726336
97.025293055728
96.9294560152261
96.7950114356939
96.6552593245174
96.5201940233215
96.3917911874576
96.2267610982776
96.0508993131615
95.8102148992405
95.5329789313023
95.426565179591
95.4610068150259
95.6029823167651
95.8220437930473
95.9746751765534
96.0422557811961
96.0980931393297
96.1030684550083
96.0765509883357
96.0406308107722
96.0203339980416
95.9517766367495
95.7610377345184
95.4481277598676
95.1749651767879
95.0585782221989
95.0688419544865
95.1211127365385
95.1843838719914
95.3776183852382
95.6572861776629
95.9840325023093
96.3557236698157
96.5821375631659
96.6819110697312
96.7679994846176
96.8358768904029
96.8093444606358
96.7331265640108
96.6310392972591
96.4621711156894
96.2460766441364
96.1148850985355
95.9901175779887
95.8341351447923
95.6195225111237
95.4050635808785
95.1666330314194
94.9042055931809
94.6413251935851
94.2523395414092
93.911810548132
93.6733232025177
93.5895497130289
93.7538308744465
93.947697533949
94.1836774087773
94.4662126763119
94.5355835793107
94.7286016899982
94.9633009445096
95.1153378945857
95.2772804780868
95.4672276970443
95.480176277948
95.4922546452407
95.4124395566068
95.2009356744359
94.9420512572486
94.895542038732
94.8884179419776
94.878439916587
94.8533226788736
94.7805338620421
94.6126737603702
94.4255516088368
94.2852909496182
94.1242223658546
93.719590966935
93.3609102759498
92.9575084105033
92.5576259394258
92.3905861201918
91.8268382750922
91.3394392246532
90.9680164811601
90.7587583854235
90.8820946039642
90.898295531232
90.7774875291434
91.1533351003946
91.3685413404883
